#ZVView-data-copy:  29-Jan-2019 22:45:26
#=======================================
#
#name:   ENDF/B-VIII.0: C-13(N,G)C-14
#X.axis: Incident Energy
#Y.axis: Cross Section
#wdata:  2
#ldata:  394
#data...
#            X            Y
#          MeV        barns
         1e-11    0.0754538
   1.10304e-11    0.0718432
   1.21669e-11    0.0684055
   1.34206e-11    0.0651322
   1.48034e-11    0.0620156
   1.63287e-11    0.0590481
   1.80111e-11    0.0562226
   1.98669e-11    0.0535323
   2.19139e-11    0.0509707
   2.41719e-11    0.0485317
   2.66625e-11    0.0462094
   2.94097e-11    0.0439983
     3.244e-11    0.0418929
   3.57825e-11    0.0398883
   3.94694e-11    0.0379796
   4.35362e-11    0.0361623
   4.80221e-11    0.0344319
   5.29701e-11    0.0327843
    5.8428e-11    0.0312155
   6.44483e-11    0.0297218
   7.10888e-11    0.0282996
   7.84136e-11    0.0269455
   8.64931e-11    0.0256561
   9.54051e-11    0.0244284
   1.05235e-10    0.0232595
   1.16078e-10    0.0221465
   1.28039e-10    0.0210868
   1.41231e-10    0.0200778
   1.55784e-10     0.019117
   1.71835e-10    0.0182023
    1.8954e-10    0.0173313
    2.0907e-10     0.016502
   2.30612e-10    0.0157123
   2.54374e-10    0.0149605
   2.80584e-10    0.0142446
   3.09494e-10     0.013563
   3.41383e-10     0.012914
   3.76558e-10    0.0122961
   4.15358e-10    0.0117077
   4.58155e-10    0.0111475
   5.05362e-10    0.0106141
   5.57433e-10    0.0101062
   6.14869e-10   0.00962259
   6.78223e-10   0.00916215
   7.48105e-10   0.00872373
   8.25188e-10    0.0083063
   9.10213e-10   0.00790884
      1.004e-9    0.0075304
    1.10745e-9   0.00717007
    1.22155e-9   0.00682699
    1.34742e-9   0.00650031
    1.48625e-9   0.00618928
    1.63939e-9   0.00589312
    1.80831e-9   0.00561114
    1.99463e-9   0.00534265
    2.20016e-9     0.005087
    2.42685e-9   0.00484359
    2.67691e-9   0.00461183
    2.95273e-9   0.00439116
    3.25697e-9   0.00418105
    3.59256e-9   0.00398099
    3.96272e-9    0.0037905
    4.37103e-9   0.00360913
    4.82141e-9   0.00343644
    5.31819e-9   0.00327201
    5.86616e-9   0.00311546
    6.47059e-9   0.00296639
     7.1373e-9   0.00282445
    7.87271e-9   0.00268931
    8.68389e-9   0.00256064
    9.57865e-9   0.00243812
    1.05656e-8   0.00232146
    1.16543e-8   0.00221039
    1.28551e-8   0.00210463
    1.41796e-8   0.00200393
    1.56406e-8   0.00190805
    1.72522e-8   0.00181676
    1.90298e-8   0.00172984
    2.09906e-8   0.00164708
    2.31534e-8   0.00156828
    2.52419e-8   0.00150201
       2.53e-8   0.00150028
    2.79068e-8   0.00142851
    3.07823e-8   0.00136017
     3.3954e-8   0.00129509
    3.74525e-8   0.00123314
    4.13115e-8   0.00117415
    4.55681e-8   0.00111798
    5.02633e-8    0.0010645
    5.54423e-8   0.00101359
    6.11549e-8  0.000965128
    6.74561e-8  0.000918996
    7.44066e-8  0.000875084
    8.20732e-8   0.00083328
    9.05297e-8  0.000793471
    9.98577e-8  0.000755553
    1.10147e-7  0.000719436
    1.21496e-7  0.000685039
    1.34014e-7  0.000652288
    1.47823e-7  0.000621097
    1.63054e-7  0.000591397
    1.79855e-7  0.000563118
    1.98386e-7  0.000536186
    2.18827e-7  0.000510535
    2.41375e-7  0.000486117
    2.66245e-7  0.000462882
    2.93678e-7   0.00044075
    3.23938e-7  0.000419666
    3.57316e-7  0.000399602
    3.94132e-7  0.000380499
    4.34743e-7  0.000362289
    4.79537e-7  0.000344949
    5.28947e-7  0.000328475
    5.83448e-7  0.000312777
    6.43565e-7  0.000297797
    7.09876e-7  0.000283564
     7.8302e-7  0.000269999
      8.637e-7  0.000257086
    9.52693e-7  0.000244807
    1.05086e-6  0.000233107
    1.15913e-6  0.000221952
    1.27857e-6   0.00021135
    1.42025e-6  0.000200595
    1.56659e-6  0.000190976
    1.72801e-6  0.000181866
    1.90606e-6  0.000173191
    2.10245e-6  0.000164919
    2.31908e-6  0.000157024
    2.55803e-6  0.000149516
    2.84137e-6   0.00014193
    3.13414e-6  0.000135111
    3.45707e-6  0.000128671
    3.81327e-6  0.000122533
    4.20618e-6  0.000116682
    4.63957e-6  0.000111093
    5.11762e-6  0.000105777
    5.64492e-6  0.000100775
    6.18325e-6   9.62628e-5
    6.77258e-6   9.19833e-5
     7.5231e-6   8.72966e-5
    8.29826e-6   8.31069e-5
    9.28242e-6   7.85984e-5
    1.02389e-5   7.48566e-5
    1.12938e-5   7.12923e-5
    1.24575e-5   6.78893e-5
    1.36448e-5   6.49115e-5
    1.50508e-5     6.181e-5
    1.66016e-5   5.88611e-5
    1.85705e-5   5.56803e-5
    2.04839e-5   5.30402e-5
    2.24374e-5   5.06903e-5
    2.45759e-5   4.84427e-5
    2.69195e-5   4.63015e-5
    3.01122e-5   4.37945e-5
    3.32148e-5   4.17044e-5
    3.71541e-5     3.945e-5
    4.09823e-5   3.75814e-5
    4.48884e-5   3.59174e-5
    4.88247e-5    3.4445e-5
    5.34808e-5   3.29156e-5
    5.98236e-5   3.11357e-5
    6.59876e-5   2.96537e-5
    7.38137e-5   2.80458e-5
    8.19895e-5   2.66213e-5
    9.04375e-5   2.53589e-5
   0.000101163   2.39848e-5
   0.000111587   2.28623e-5
   0.000121372   2.19388e-5
   0.000132947   2.09752e-5
   0.000149756   1.97909e-5
   0.000164037   1.89262e-5
   0.000183492   1.79116e-5
   0.000203816   1.70188e-5
   0.000223252   1.62756e-5
    0.00024283   1.56182e-5
   0.000265974    1.4932e-5
   0.000299617   1.40891e-5
   0.000328174   1.34738e-5
   0.000364541   1.27964e-5
   0.000404919   1.21557e-5
    0.00044664   1.15868e-5
   0.000485807   1.11188e-5
   0.000532136   1.06298e-5
   0.000599416   1.00303e-5
   0.000656579   9.59191e-6
   0.000729304   9.10978e-6
   0.000815798   8.62345e-6
   0.000887337   8.27854e-6
   0.000945101   8.02603e-6
    0.00102078   7.72843e-6
    0.00111029   7.41663e-6
    0.00120766   7.11826e-6
    0.00132282   6.80675e-6
    0.00149007   6.42283e-6
    0.00163217   6.14356e-6
    0.00176967   5.90768e-6
    0.00188478   5.72802e-6
    0.00202154   5.53704e-6
    0.00222983   5.30919e-6
    0.00243672   5.11047e-6
    0.00269659   4.89266e-6
     0.0030164   4.66284e-6
    0.00331937   4.47421e-6
    0.00373923   4.25174e-6
    0.00401055   4.12549e-6
    0.00458463    3.9501e-6
    0.00505701   3.82708e-6
    0.00550547   3.72162e-6
    0.00603049   3.61211e-6
    0.00707551   3.46014e-6
    0.00808254   3.33774e-6
    0.00929803   3.22833e-6
      0.010043   3.16923e-6
     0.0124025   3.06756e-6
     0.0143231    3.0006e-6
     0.0170446    2.9198e-6
          0.02   2.84665e-6
          0.03   2.83325e-6
     0.0402822   2.91973e-6
     0.0503527   3.06767e-6
     0.0599882   3.28657e-6
     0.0704767   3.63425e-6
          0.08   4.01904e-6
          0.09   4.54732e-6
           0.1   5.30289e-6
         0.115   7.46178e-6
      0.119936   8.79669e-6
         0.125    1.0899e-5
          0.13   1.43892e-5
         0.135   2.09709e-5
          0.14   3.58255e-5
      0.141975      4.74e-5
      0.142069   4.82102e-5
      0.143978   6.67856e-5
      0.144041   6.77162e-5
      0.145747   9.79836e-5
         0.146  0.000102654
       0.14625  0.000111771
      0.147969  0.000175789
         0.148  0.000177444
      0.148047   0.00018136
      0.149969  0.000364267
          0.15  0.000368234
      0.150047  0.000377053
      0.150969   0.00057222
         0.151  0.000580177
      0.151063  0.000601704
         0.152  0.000948261
      0.152875   0.00134863
         0.153   0.00140346
       0.15325    0.0014569
      0.153469   0.00150107
        0.1535   0.00150439
      0.153547   0.00150072
      0.153969   0.00143701
      0.154016   0.00142449
         0.155  0.000985066
      0.155969  0.000613772
      0.156016  0.000598788
      0.156687  0.000449216
      0.156969   0.00038699
         0.157  0.000380904
      0.157063  0.000372157
      0.157937  0.000263063
         0.158  0.000255775
      0.158125  0.000246053
      0.158875  0.000190755
         0.159  0.000181813
       0.15925  0.000169972
      0.159875  0.000141054
          0.16  0.000135474
       0.16025  0.000128795
      0.161875   8.67076e-5
         0.162   8.35974e-5
        0.1625   7.68525e-5
         0.164   5.70567e-5
         0.166   4.18245e-5
         0.168    3.2318e-5
          0.17   2.60135e-5
          0.18   1.28354e-5
          0.19   8.94098e-6
           0.2    7.3486e-6
          0.25   5.80487e-6
      0.354852   6.33458e-6
           0.4   6.61823e-6
          0.45   6.72843e-6
           0.5   6.66887e-6
      0.599882   6.25149e-6
       0.71471   5.56343e-6
      0.811287   4.95964e-6
           0.9   4.43546e-6
             1   3.92776e-6
           1.2   3.26053e-6
       1.39994   3.07658e-6
           1.6   3.88979e-6
           1.8   8.36121e-6
             2   9.38401e-6
           2.2   6.96916e-6
           2.4   7.62982e-6
           2.6   7.94201e-6
           2.8   9.77816e-6
             3   1.61264e-5
           3.2   2.67998e-5
           3.4   2.75519e-5
           3.6   1.93238e-5
           3.8   1.53878e-5
             4   1.64133e-5
           4.2   1.83126e-5
           4.4   2.10893e-5
       4.63245   2.44894e-5
           4.8   2.68344e-5
             5   3.31591e-5
           5.2   3.74531e-5
           5.4   3.94632e-5
       5.75913   4.72423e-5
           5.8   4.81379e-5
       6.08465   5.21622e-5
       6.24374    5.4551e-5
           6.4   5.70608e-5
           6.6   6.08131e-5
           6.8   6.54294e-5
             7   6.91396e-5
           7.2   7.09543e-5
           7.4    7.3183e-5
           7.8   8.30806e-5
             8   8.07525e-5
           8.2   7.66285e-5
           8.4   7.31455e-5
           8.8   6.88414e-5
             9   6.50318e-5
           9.4   5.59344e-5
           9.6   5.43383e-5
            10   5.18663e-5
       10.1411   5.18745e-5
          10.2   5.18781e-5
       10.3439   5.19707e-5
       10.4898   5.20646e-5
          10.6   5.21355e-5
       10.7495   5.12578e-5
          10.8   5.09617e-5
       10.9524   4.97361e-5
            11    4.9353e-5
       11.1552   4.76993e-5
       11.3126   4.60222e-5
       11.4722   4.43215e-5
          11.5   4.40249e-5
       11.6622   4.15221e-5
       11.8268   3.89839e-5
       11.9936   3.64099e-5
            12   3.63117e-5
       12.1693   3.61565e-5
        12.341   3.59991e-5
          12.5   3.58532e-5
       12.6764   3.60887e-5
       12.8552   3.63274e-5
            13   3.65208e-5
       13.1834   3.70496e-5
       13.3694   3.75859e-5
          13.5   3.79625e-5
       13.6905   3.83364e-5
       13.8836   3.87156e-5
            14   3.89441e-5
       14.1975   3.94384e-5
       14.3978   3.99397e-5
          14.5   4.01955e-5
       14.7046   4.30929e-5
        14.912   4.60312e-5
            15   4.72772e-5
       15.2116   4.90864e-5
       15.4262   5.09211e-5
          15.5   5.15517e-5
       15.7187   4.94278e-5
       15.9404   4.72739e-5
            16   4.66954e-5
       16.2257   4.50531e-5
       16.4546   4.33876e-5
          16.5   4.30577e-5
       16.7328   4.27461e-5
       16.9689   4.24301e-5
            17   4.23884e-5
       17.2398   4.13629e-5
       17.4831    4.0323e-5
          17.5   4.02506e-5
       17.7469   3.66835e-5
       17.9973   3.30661e-5
            18   3.30267e-5
       18.2539   2.94165e-5
          18.5   2.59185e-5
        18.761    2.4432e-5
       19.0257   2.29246e-5
       19.2941   2.13958e-5
          19.5   2.02232e-5
       19.7751   1.97517e-5
            20   1.93663e-5
//
#-------------------------------------------------------------------------------
