#ZVView-data-copy:  29-Jan-2019 22:14:59
#=======================================
#
#name:   ENDF/B-VIII.0: FE-54(N,G)FE-55
#X.axis: Incident Energy
#Y.axis: Cross Section
#wdata:  2
#ldata:  63074
#data...
#            X            Y
#          MeV        barns
         1e-11      113.332
   1.10304e-11      107.909
   1.21669e-11      102.745
   1.34206e-11      97.8286
   1.48034e-11      93.1474
   1.63287e-11      88.6902
   1.80111e-11      84.4463
   1.98669e-11      80.4054
   2.19139e-11       76.558
   2.41719e-11      72.8946
   2.66625e-11      69.4065
   2.94097e-11      66.0854
     3.244e-11      62.9231
   3.57825e-11      59.9122
   3.94694e-11      57.0454
   4.35362e-11      54.3157
   4.80221e-11      51.7166
   5.29701e-11      49.2419
    5.8428e-11      46.8857
   6.44483e-11      44.6422
   7.10888e-11       42.506
   7.84136e-11       40.472
   8.64931e-11      38.5354
   9.54051e-11      36.6915
   1.05235e-10      34.9357
   1.16078e-10       33.264
   1.28039e-10      31.6723
   1.41231e-10      30.1568
   1.55784e-10      28.7137
   1.71835e-10      27.3398
    1.8954e-10      26.0315
    2.0907e-10      24.7859
   2.30612e-10      23.5999
   2.54374e-10      22.4706
   2.80584e-10      21.3954
   3.09494e-10      20.3716
   3.41383e-10      19.3968
   3.76558e-10      18.4686
   4.15358e-10      17.5849
   4.58155e-10      16.7434
   5.05362e-10      15.9422
   5.57433e-10      15.1794
   6.14869e-10       14.453
   6.78223e-10      13.7615
   7.48105e-10       13.103
   8.25188e-10       12.476
   9.10213e-10       11.879
      1.004e-9      11.3106
    1.10745e-9      10.7693
    1.22155e-9       10.254
    1.34742e-9      9.76336
    1.48625e-9      9.29617
    1.63939e-9      8.85134
    1.80831e-9       8.4278
    1.99463e-9      8.02452
    2.20016e-9      7.64054
    2.42685e-9      7.27493
    2.67691e-9      6.92682
    2.95273e-9      6.59537
    3.25697e-9      6.27977
    3.59256e-9      5.97928
    3.96272e-9      5.69317
    4.37103e-9      5.42075
    4.82141e-9      5.16136
    5.31819e-9      4.91438
    5.86616e-9      4.67923
    6.47059e-9      4.45532
     7.1373e-9      4.24213
    7.87271e-9      4.03914
    8.68389e-9      3.84587
    9.57865e-9      3.66185
    1.05656e-8      3.48664
    1.16543e-8      3.31982
    1.28551e-8      3.16101
    1.41796e-8      3.00982
    1.56406e-8       2.8659
    1.72522e-8       2.7289
    1.90298e-8      2.59847
    2.09906e-8      2.47428
    2.31534e-8      2.35601
    2.52419e-8      2.25651
       2.53e-8      2.25392
    2.79068e-8       2.1461
    3.07823e-8      2.04339
     3.3954e-8      1.94557
    3.74525e-8      1.85247
    4.13115e-8       1.7639
    4.55681e-8      1.67961
    5.02633e-8       1.5993
    5.54423e-8      1.52274
    6.11549e-8      1.44979
    6.74561e-8      1.38032
    7.44066e-8      1.31421
    8.20732e-8      1.25133
    9.05297e-8      1.19156
    9.98577e-8      1.13466
    1.10147e-7      1.08036
    1.21496e-7      1.02859
    1.34014e-7     0.979307
    1.47823e-7     0.932397
    1.63054e-7     0.887785
    1.79855e-7     0.845452
    1.99786e-7     0.802262
    2.20371e-7     0.763815
    2.43077e-7     0.727207
    2.68123e-7     0.692363
     2.9575e-7     0.659198
    3.26223e-7     0.627629
    3.59836e-7     0.597651
    3.99693e-7     0.567214
    4.40876e-7     0.540031
    4.86303e-7      0.51415
     5.3641e-7     0.489517
     5.9168e-7      0.46607
    6.52645e-7     0.443751
    7.19891e-7     0.422623
    7.99668e-7     0.401029
    8.82063e-7      0.38181
    9.72949e-7     0.363519
     1.0732e-6     0.346104
    1.18378e-6     0.329527
    1.30575e-6      0.31375
    1.44029e-6     0.298731
    1.57757e-6     0.285514
    1.75239e-6     0.270919
    1.93295e-6      0.25795
    2.13211e-6     0.245585
     2.3518e-6     0.233824
    2.59412e-6     0.222634
    2.86141e-6     0.211982
    3.13414e-6     0.202607
    3.45707e-6     0.192921
    3.81327e-6     0.183704
    4.17692e-6     0.175523
     4.6073e-6     0.167099
    5.08202e-6     0.159123
    5.60566e-6     0.151504
    6.18325e-6     0.144279
    6.86813e-6     0.136926
     7.5231e-6     0.130842
    8.24013e-6     0.125037
    9.02594e-6     0.119468
    1.00257e-5     0.113363
    1.10587e-5     0.107936
    1.21982e-5     0.102789
    1.36448e-5    0.0972212
    1.50508e-5    0.0925993
    1.63706e-5    0.0888026
    1.78062e-5    0.0851615
    1.95042e-5    0.0813653
    2.15139e-5    0.0775028
    2.37306e-5    0.0738101
    2.58116e-5     0.070835
    2.76845e-5    0.0683965
    3.01122e-5    0.0655957
    3.27527e-5    0.0629166
    3.56249e-5    0.0603476
    3.90203e-5    0.0576698
    4.30409e-5    0.0549484
    4.74757e-5     0.052346
    5.16389e-5    0.0502494
    5.50005e-5    0.0486943
    5.98236e-5    0.0467153
    6.50696e-5    0.0448242
    7.07757e-5    0.0430127
    7.75213e-5    0.0411266
    8.55089e-5    0.0392031
    9.43195e-5    0.0373667
   0.000101877    0.0360126
   0.000110034    0.0346791
   0.000119684    0.0332916
   0.000130179     0.031967
   0.000141594    0.0306991
   0.000155097    0.0293797
   0.000171078    0.0280372
   0.000188706    0.0267573
   0.000203816    0.0258158
   0.000220147    0.0248888
   0.000239452    0.0239266
   0.000260449    0.0230099
   0.000283289    0.0221347
   0.000310289    0.0212268
    0.00034226    0.0203065
   0.000369684    0.0196304
   0.000399286    0.0189625
   0.000437363     0.018219
   0.000479048    0.0175188
   0.000521057    0.0169065
   0.000564145    0.0163572
    0.00061729    0.0157672
   0.000681894    0.0151589
   0.000736532    0.0147268
   0.000794698    0.0143091
   0.000880332    0.0137978
   0.000964237    0.0133805
    0.00104768     0.013032
    0.00113955    0.0127112
    0.00126266    0.0123628
    0.00140251    0.0120649
    0.00158937    0.0117947
    0.00174831    0.0116523
    0.00191503    0.0115793
    0.00203743    0.0115639
     0.0022408    0.0116227
    0.00242924     0.011753
     0.0026444    0.0119948
    0.00284074    0.0123017
    0.00298072    0.0125903
    0.00303276    0.0127579
    0.00305346    0.0128958
    0.00306411    0.0130429
    0.00306973     0.013182
    0.00307416    0.0133595
    0.00307786    0.0135975
    0.00308008    0.0138116
    0.00308218       0.0141
    0.00308359    0.0143637
    0.00308499    0.0147152
    0.00308599     0.015042
    0.00308688    0.0154087
    0.00308776    0.0158751
    0.00308835     0.016261
    0.00308895    0.0167275
    0.00308954    0.0173005
    0.00308998     0.017823
    0.00309042    0.0184515
    0.00309079    0.0190824
    0.00309116     0.019845
    0.00309144    0.0205327
    0.00309172    0.0213539
     0.0030919    0.0219972
    0.00309209    0.0227381
    0.00309227    0.0235999
    0.00309246    0.0246125
     0.0030926    0.0254936
    0.00309273    0.0265004
    0.00309287    0.0276567
    0.00309301      0.02899
    0.00309315    0.0305334
    0.00309329    0.0323247
    0.00309338    0.0336785
    0.00309347    0.0351773
    0.00309357     0.036837
    0.00309366    0.0386757
    0.00309375    0.0407124
    0.00309384    0.0429685
    0.00309394    0.0454662
    0.00309403    0.0482301
    0.00309412    0.0512858
    0.00309421    0.0546617
    0.00309431    0.0583862
     0.0030944    0.0624907
    0.00309449    0.0670066
    0.00309458    0.0719684
    0.00309468    0.0774095
    0.00309477    0.0833659
    0.00309486    0.0898727
    0.00309493    0.0955002
    0.00309501     0.101521
    0.00309508     0.107955
    0.00309519     0.118417
     0.0030953     0.129904
    0.00309541     0.142471
    0.00309553     0.156165
    0.00309564     0.171029
    0.00309575     0.187093
    0.00309586     0.204384
    0.00309597     0.222909
    0.00309608     0.243346
    0.00309621     0.266524
    0.00309633     0.291123
    0.00309649     0.325998
    0.00309665     0.363007
    0.00309683     0.404508
    0.00309716     0.487636
    0.00309751     0.576789
    0.00309771     0.624513
    0.00309788     0.660876
    0.00309805     0.697008
    0.00309823     0.728541
    0.00309841     0.754622
    0.00309859     0.774529
    0.00309876     0.787694
    0.00309892     0.793459
      0.003099     0.794131
    0.00309911      0.79264
    0.00309926     0.786238
     0.0030994     0.775462
    0.00309954     0.760353
    0.00309971      0.73762
    0.00309987     0.710991
    0.00310004     0.677925
    0.00310024     0.635856
    0.00310046     0.581871
    0.00310115     0.409648
    0.00310135     0.363183
    0.00310151     0.326092
    0.00310166     0.294372
     0.0031018     0.264605
    0.00310195     0.236915
    0.00310205     0.219653
    0.00310215     0.203361
    0.00310227      0.18436
    0.00310238     0.168541
    0.00310249     0.153915
     0.0031026     0.140443
    0.00310271     0.128086
    0.00310282     0.116795
    0.00310294     0.106514
    0.00310301     0.100194
    0.00310308    0.0942794
    0.00310316    0.0887521
    0.00310323     0.083595
     0.0031033    0.0787887
     0.0031034     0.072755
    0.00310349    0.0683193
    0.00310357    0.0642328
    0.00310365    0.0604737
    0.00310373    0.0570191
    0.00310381    0.0538485
    0.00310389    0.0509399
    0.00310397    0.0482753
    0.00310403     0.046625
    0.00310414    0.0436028
    0.00310424    0.0409197
    0.00310435    0.0385384
    0.00310446    0.0364261
    0.00310457    0.0345519
    0.00310468    0.0328885
    0.00310478    0.0314106
    0.00310489    0.0300963
      0.003105    0.0289255
    0.00310511    0.0278808
    0.00310523    0.0268664
     0.0031054     0.025553
    0.00310558    0.0244458
    0.00310576    0.0235041
    0.00310594    0.0226963
    0.00310617    0.0217838
    0.00310641    0.0210183
    0.00310664    0.0203662
      0.003107    0.0195491
    0.00310735    0.0188764
    0.00310771    0.0183113
    0.00310818    0.0176838
    0.00310865    0.0171655
     0.0031092     0.016665
    0.00310983    0.0161971
    0.00311046    0.0158137
    0.00311141    0.0153552
    0.00311235    0.0149988
    0.00311329    0.0147154
    0.00311455    0.0144192
    0.00311644    0.0140953
    0.00311833    0.0138673
    0.00312053    0.0136777
    0.00312368     0.013492
     0.0031284    0.0133264
    0.00313407    0.0132116
    0.00314163     0.013133
    0.00315674    0.0130795
    0.00316177    0.0130742
    0.00320207    0.0131189
    0.00332295    0.0134279
    0.00350302    0.0140004
    0.00368561    0.0146895
     0.0038575    0.0154491
    0.00402096    0.0162856
    0.00417699    0.0172048
    0.00432559    0.0182063
    0.00445934    0.0192293
    0.00459308    0.0203878
    0.00471567    0.0215859
    0.00482712    0.0228048
    0.00493857    0.0241663
    0.00503294    0.0254441
    0.00514884    0.0271994
    0.00524395    0.0288128
    0.00533905    0.0306059
    0.00542821    0.0324737
    0.00552926    0.0348504
    0.00560059    0.0366994
    0.00567192     0.038738
    0.00574325    0.0409529
    0.00581458    0.0434076
    0.00588591    0.0460867
    0.00595723     0.049073
    0.00602856    0.0523486
    0.00607612    0.0547415
    0.00612367    0.0573113
      0.006195     0.061533
    0.00626632    0.0662585
    0.00632577    0.0706412
    0.00638521    0.0754656
    0.00644465    0.0808174
    0.00650409     0.086736
    0.00656353    0.0933335
    0.00661108     0.099141
    0.00665863     0.105482
    0.00670618     0.112413
    0.00675374     0.119999
    0.00680129     0.128311
    0.00684884     0.137422
    0.00689639     0.147415
    0.00694395     0.158376
     0.0069915     0.170389
    0.00703905      0.18354
     0.0070866     0.197906
    0.00713416     0.213546
    0.00718171     0.230491
    0.00722926     0.248727
    0.00726492     0.263191
    0.00733625     0.293986
    0.00745513     0.347513
    0.00751457     0.373025
    0.00757401     0.395461
    0.00760968     0.406746
    0.00764534     0.415682
    0.00768101     0.422245
    0.00771667     0.425778
    0.00774045     0.426679
    0.00777849     0.425064
    0.00781237     0.420601
    0.00784744     0.413568
     0.0078831     0.403656
    0.00791877     0.391689
    0.00796632     0.372892
    0.00801387     0.351919
    0.00816842     0.279437
    0.00821597     0.258176
    0.00826352     0.238075
    0.00831108     0.219302
    0.00835863     0.201931
    0.00840618     0.185966
    0.00845373     0.171364
    0.00850128     0.158054
    0.00854884      0.14595
    0.00859639     0.134956
    0.00864394     0.124976
     0.0086915     0.115917
    0.00873905     0.107691
     0.0087866     0.100217
    0.00883415    0.0934192
     0.0088817    0.0872312
    0.00892926    0.0815925
    0.00897681    0.0764497
    0.00902436    0.0717563
    0.00907191     0.067473
    0.00911947    0.0635687
    0.00916702    0.0600234
    0.00921457    0.0568357
    0.00926212      0.05404
    0.00929779     0.052294
    0.00932156    0.0513706
     0.0093394     0.050838
     0.0093602    0.0505784
    0.00937357    0.0507506
     0.0093836    0.0511015
    0.00939289    0.0517446
    0.00939884    0.0523741
    0.00940478    0.0532376
    0.00941072     0.054405
    0.00941518    0.0555568
    0.00941964    0.0570402
     0.0094241    0.0589558
    0.00942707    0.0605474
    0.00943004     0.062462
    0.00943301    0.0647802
    0.00943543    0.0670396
    0.00943729    0.0690659
    0.00943914    0.0713977
      0.009441    0.0740954
    0.00944286    0.0772345
    0.00944472    0.0809119
    0.00944611    0.0840977
     0.0094475    0.0877239
     0.0094489    0.0918757
    0.00945033    0.0968172
     0.0094513     0.100616
    0.00945227     0.104847
    0.00945324      0.10958
    0.00945422     0.114897
    0.00945519     0.120898
    0.00945616     0.127706
    0.00945713     0.135474
    0.00945783      0.14177
    0.00945853     0.148752
    0.00945923     0.156525
    0.00945993     0.165216
    0.00946063     0.174984
    0.00946133      0.18602
    0.00946185     0.195272
    0.00946237     0.205496
    0.00946297     0.218563
    0.00946347     0.230771
    0.00946397     0.244387
    0.00946447     0.259661
    0.00946485     0.272392
    0.00946522     0.286397
     0.0094656      0.30188
    0.00946597     0.319093
    0.00946635     0.338355
    0.00946672     0.360068
    0.00946707        0.383
    0.00946733     0.402213
    0.00946759     0.423458
    0.00946786     0.447069
    0.00946812     0.473448
    0.00946838     0.503079
    0.00946864     0.536537
    0.00946891     0.574512
    0.00946908     0.602737
    0.00946926      0.63361
    0.00946943     0.667444
    0.00946964     0.713013
    0.00946983     0.757831
    0.00947002      0.80753
     0.0094702     0.862718
    0.00947039     0.924048
    0.00947058     0.992258
    0.00947077      1.06815
    0.00947095      1.15259
    0.00947114      1.24653
    0.00947133      1.35099
    0.00947152      1.46706
    0.00947168      1.58243
    0.00947185      1.70904
    0.00947202      1.84784
    0.00947219      1.99978
    0.00947236      2.16587
    0.00947253      2.34713
     0.0094727       2.5446
    0.00947287      2.75927
    0.00947303      2.99222
     0.0094732       3.2444
    0.00947331      3.42369
    0.00947349      3.72109
    0.00947366      4.04182
    0.00947384      4.38677
    0.00947401      4.75662
    0.00947419      5.15202
    0.00947436      5.57334
    0.00947454      6.02083
    0.00947478      6.66996
    0.00947503      7.40451
    0.00947527      8.18968
    0.00947559      9.23735
    0.00947594      10.4873
    0.00947639      12.1845
    0.00947731      15.7733
    0.00947772      17.2947
    0.00947811       18.595
    0.00947846      19.6393
    0.00947877      20.4232
    0.00947903      20.9756
    0.00947929      21.4061
    0.00947959      21.7279
    0.00947981      21.8651
       0.00948      21.9003
    0.00948029      21.8154
    0.00948059       21.555
    0.00948085      21.1813
    0.00948112      20.6816
     0.0094814      20.0284
     0.0094817      19.1731
    0.00948206      18.0513
    0.00948247      16.5945
    0.00948294      14.8211
    0.00948381      11.4214
    0.00948417      10.0934
    0.00948448      8.99453
    0.00948478      8.02162
      0.009485      7.33547
    0.00948522      6.68888
    0.00948544      6.08325
    0.00948559      5.70256
    0.00948577      5.25267
    0.00948595      4.83149
    0.00948614      4.43857
    0.00948632      4.07327
     0.0094865      3.73472
    0.00948669      3.42198
    0.00948687      3.13392
    0.00948706      2.86937
    0.00948722      2.65466
    0.00948738      2.45633
    0.00948754      2.27345
     0.0094877      2.10513
    0.00948787      1.95042
    0.00948803      1.80845
    0.00948819      1.67834
    0.00948835      1.55926
    0.00948851      1.45034
    0.00948868      1.35085
    0.00948886      1.24839
    0.00948901      1.17152
    0.00948916        1.101
    0.00948931      1.03631
    0.00948947     0.976962
    0.00948962     0.922517
    0.00948977     0.872554
    0.00948992     0.826683
    0.00949007     0.784544
    0.00949022     0.745806
    0.00949038     0.710162
     0.0094906     0.661897
    0.00949083     0.619119
    0.00949106     0.581097
    0.00949131     0.544127
     0.0094915     0.518141
     0.0094917     0.494441
    0.00949199      0.46261
    0.00949228     0.434577
    0.00949258     0.409729
    0.00949287      0.38756
    0.00949316     0.367659
    0.00949345     0.349692
    0.00949375     0.333383
    0.00949414     0.313834
    0.00949446     0.299344
    0.00949484     0.283855
    0.00949522     0.269845
     0.0094956     0.257111
     0.0094961     0.241833
    0.00949661     0.228215
    0.00949711     0.216005
    0.00949762     0.205003
    0.00949812     0.195046
    0.00949879     0.183294
    0.00949941     0.173553
    0.00950003     0.164802
    0.00950065     0.156907
    0.00950127     0.149756
     0.0095021     0.141219
    0.00950292     0.133659
    0.00950375     0.126929
    0.00950458     0.120908
    0.00950563     0.114095
     0.0095066     0.108606
    0.00950756      0.10371
    0.00950853    0.0993222
    0.00950949     0.095374
    0.00951078    0.0906932
    0.00951206    0.0865772
    0.00951335     0.082936
    0.00951464    0.0796978
    0.00951638    0.0758448
    0.00951804    0.0726755
    0.00951969    0.0698949
    0.00952189    0.0666861
     0.0095241    0.0639445
     0.0095263    0.0615824
    0.00952851    0.0595292
    0.00953182     0.056907
    0.00953439    0.0551728
    0.00953733     0.053455
    0.00954174    0.0512976
    0.00954615    0.0495281
    0.00955056    0.0480591
    0.00955644    0.0464372
    0.00956305    0.0449407
    0.00956967    0.0437141
    0.00957959     0.042232
    0.00959392    0.0405858
    0.00960495    0.0395623
    0.00962149    0.0383026
    0.00963655     0.037336
    0.00966522    0.0358048
    0.00969021    0.0346686
     0.0097299    0.0331089
      0.009774    0.0315741
    0.00982427    0.0300248
    0.00988088    0.0284406
    0.00992073    0.0274167
    0.00997766    0.0260591
     0.0100346    0.0248089
     0.0100915    0.0236533
     0.0101724    0.0221605
     0.0102442    0.0209512
      0.010316    0.0198579
      0.010382     0.018947
      0.010424    0.0183872
      0.010508    0.0173881
     0.0105794    0.0166372
     0.0106508    0.0159843
     0.0107075    0.0155523
       0.01076    0.0152294
     0.0107936    0.0150815
      0.010823    0.0150002
     0.0108524    0.0149776
     0.0108776    0.0150228
     0.0109028    0.0151447
     0.0109259     0.015354
     0.0109448    0.0156195
     0.0109637    0.0159998
     0.0109763    0.0163408
     0.0109889     0.016774
     0.0110015    0.0173251
     0.0110109    0.0178374
     0.0110204    0.0184578
     0.0110298    0.0192144
     0.0110361    0.0198085
     0.0110424    0.0204905
     0.0110487    0.0212867
