#ZVView-data-copy:  29-Jan-2019 22:27:41
#=======================================
#
#name:   ENDF/B-VIII.0: MO-98(N,G)MO-99
#X.axis: Incident Energy
#Y.axis: Cross Section
#wdata:  2
#ldata:  32601
#data...
#            X            Y
#          MeV        barns
         1e-11       6.5314
   1.10304e-11      6.21887
   1.21669e-11      5.92129
   1.34206e-11      5.63795
   1.48034e-11      5.36817
   1.63287e-11       5.1113
   1.80111e-11      4.86672
   1.98669e-11      4.63384
   2.19139e-11      4.41211
   2.41719e-11      4.20099
   2.66625e-11      3.99997
   2.94097e-11      3.80857
     3.244e-11      3.62632
   3.57825e-11       3.4528
   3.94694e-11      3.28758
   4.35362e-11      3.13027
   4.80221e-11      2.98048
   5.29701e-11      2.83786
    5.8428e-11      2.70207
   6.44483e-11      2.57277
   7.10888e-11      2.44967
   7.84136e-11      2.33245
   8.64931e-11      2.22084
   9.54051e-11      2.11457
   1.05235e-10      2.01339
   1.16078e-10      1.91705
   1.28039e-10      1.82531
   1.41231e-10      1.73797
   1.55784e-10      1.65481
   1.71835e-10      1.57563
    1.8954e-10      1.50023
    2.0907e-10      1.42845
   2.30612e-10      1.36009
   2.54374e-10      1.29501
   2.80584e-10      1.23305
   3.09494e-10      1.17405
   3.41383e-10      1.11787
   3.76558e-10      1.06438
   4.15358e-10      1.01345
   4.58155e-10     0.964956
   5.05362e-10     0.918784
   5.57433e-10     0.874821
   6.14869e-10     0.832962
   6.78223e-10     0.793106
   7.48105e-10     0.755157
   8.25188e-10     0.719024
   9.10213e-10      0.68462
      1.004e-9     0.651863
    1.10745e-9     0.620673
    1.22155e-9     0.590976
    1.34742e-9       0.5627
    1.48625e-9     0.535777
    1.63939e-9     0.510143
    1.80831e-9     0.485735
    1.99463e-9     0.462495
    2.20016e-9     0.440368
    2.42685e-9       0.4193
    2.67691e-9      0.39924
    2.95273e-9      0.38014
    3.25697e-9     0.361954
    3.59256e-9     0.344638
    3.96272e-9     0.328152
    4.37103e-9     0.312454
    4.82141e-9     0.297508
    5.31819e-9     0.283278
    5.86616e-9      0.26973
    6.47059e-9      0.25683
     7.1373e-9      0.24455
    7.87271e-9      0.23286
    8.68389e-9     0.221731
    9.57865e-9     0.211136
    1.05656e-8     0.201049
    1.16543e-8     0.191445
    1.28551e-8       0.1823
    1.41796e-8     0.173593
    1.56406e-8     0.165304
    1.72522e-8     0.157409
    1.90298e-8     0.149888
    2.09906e-8     0.142725
    2.31534e-8     0.135904
    2.52419e-8     0.130171
       2.53e-8     0.130021
    2.79068e-8     0.123811
    3.07823e-8     0.117897
     3.3954e-8     0.112265
    3.74525e-8     0.106906
    4.13115e-8     0.101812
    4.55681e-8     0.096966
    5.02633e-8     0.092345
    5.54423e-8    0.0879388
    6.11549e-8    0.0837433
    6.74561e-8    0.0797507
    7.44066e-8    0.0759517
    8.20732e-8    0.0723409
    9.05297e-8    0.0689115
    1.00562e-7    0.0654082
    1.10924e-7    0.0622976
    1.22353e-7      0.05934
     1.3496e-7     0.056531
    1.48866e-7    0.0538685
    1.65354e-7     0.051145
    1.82392e-7    0.0487262
    2.01185e-7     0.046426
    2.21915e-7    0.0442386
     2.4478e-7    0.0421586
    2.70002e-7    0.0401855
    2.99923e-7    0.0381869
    3.30826e-7    0.0364024
    3.64913e-7    0.0347066
    4.02512e-7    0.0330959
    4.43986e-7    0.0315662
    4.89733e-7    0.0301136
    5.40194e-7     0.028735
    5.95854e-7    0.0274387
    6.57249e-7    0.0261966
    7.24969e-7     0.025019
    7.99668e-7    0.0239033
    8.88242e-7    0.0227752
    9.86675e-7    0.0217136
    1.09596e-6    0.0207167
    1.20048e-6    0.0199092
    1.33345e-6    0.0190277
    1.47084e-6    0.0182577
    1.62239e-6    0.0175376
    1.80218e-6     0.016824
    1.98787e-6    0.0162138
    2.22363e-6     0.015584
    2.45275e-6    0.0150941
    2.70547e-6    0.0146623
    3.02634e-6    0.0142566
    3.31478e-6    0.0140026
    3.58038e-6    0.0138483
    3.89435e-6    0.0137552
    4.04556e-6    0.0137427
    4.38321e-6    0.0138012
    4.70126e-6    0.0139539
    5.00706e-6     0.014198
    5.29566e-6    0.0145146
    5.56193e-6    0.0149002
     5.8413e-6    0.0154081
    6.09204e-6    0.0159667
    6.30934e-6     0.016541
    6.53408e-6    0.0172361
    6.76715e-6    0.0180828
    6.95944e-6    0.0188933
    7.15719e-6    0.0198498
    7.30901e-6    0.0206813
    7.46441e-6    0.0216325
    7.62275e-6    0.0227201
    7.78482e-6    0.0239759
    7.94995e-6    0.0254269
    8.11898e-6    0.0271221
    8.23352e-6    0.0284106
    8.34968e-6    0.0298493
    8.46748e-6    0.0314619
    8.58694e-6     0.033277
    8.70809e-6    0.0353292
    8.83094e-6    0.0376609
    8.95553e-6    0.0403173
    9.05007e-6    0.0425588
     9.1455e-6    0.0450611
    9.24227e-6    0.0478724
    9.33994e-6    0.0510273
    9.43854e-6    0.0545837
    9.53806e-6    0.0586125
    9.60534e-6    0.0616228
    9.67263e-6    0.0648947
    9.74086e-6    0.0685115
    9.80909e-6    0.0724657
    9.87828e-6    0.0768641
    9.94748e-6    0.0817053
    1.00176e-5    0.0871291
    1.00878e-5    0.0931451
     1.0159e-5    0.0999414
    1.02123e-5     0.105564
    1.02662e-5     0.111756
    1.03203e-5     0.118564
    1.03745e-5     0.126035
    1.04294e-5     0.134373
    1.04842e-5     0.143587
    1.05394e-5     0.153863
     1.0595e-5     0.165438
    1.06507e-5      0.17841
    1.06881e-5     0.188015
    1.07257e-5     0.198508
    1.07633e-5     0.209921
     1.0801e-5     0.222364
    1.08389e-5     0.236064
     1.0877e-5     0.251199
    1.09152e-5     0.267857
    1.09534e-5     0.286249
    1.09918e-5     0.306776
    1.10305e-5     0.329786
    1.10595e-5     0.348802
    1.10885e-5     0.369526
    1.11176e-5     0.392168
    1.11469e-5     0.417217
    1.11763e-5     0.444895
    1.12057e-5     0.475439
    1.12352e-5     0.509263
    1.12646e-5     0.546859
    1.12942e-5     0.589026
    1.13141e-5     0.620233
     1.1334e-5      0.65401
    1.13539e-5     0.690647
    1.13738e-5     0.730478
    1.13937e-5     0.773888
    1.14136e-5     0.821322
    1.14335e-5     0.873302
    1.14515e-5     0.924676
    1.14675e-5      0.97454
    1.14836e-5      1.02861
    1.14996e-5      1.08738
    1.15157e-5      1.15141
    1.15317e-5      1.22138
    1.15478e-5      1.29805
    1.15638e-5      1.38232
    1.15786e-5      1.46753
    1.15921e-5      1.55262
    1.16056e-5      1.64552
    1.16191e-5      1.74724
    1.16326e-5      1.85896
    1.16461e-5      1.98211
    1.16596e-5      2.11834
    1.16731e-5      2.26965
    1.16851e-5      2.41876
    1.16957e-5      2.56215
    1.17062e-5      2.71928
    1.17167e-5      2.89206
    1.17272e-5      3.08271
    1.17377e-5      3.29388
    1.17482e-5      3.52874
     1.1756e-5      3.72265
    1.17639e-5      3.93381
     1.1772e-5      4.17123
    1.17801e-5      4.43174
    1.17882e-5      4.71832
    1.17963e-5      5.03436
    1.18044e-5      5.38372
    1.18125e-5      5.77074
    1.18206e-5      6.20032
    1.18287e-5       6.6779
    1.18355e-5      7.11692
    1.18422e-5      7.59727
     1.1849e-5      8.12303
    1.18557e-5      8.69856
    1.18625e-5      9.32842
    1.18677e-5      9.85892
    1.18737e-5      10.5119
    1.18797e-5      11.2181
    1.18857e-5      11.9809
    1.18917e-5      12.8038
    1.18978e-5      13.6901
    1.19038e-5      14.6428
    1.19098e-5      15.6648
    1.19158e-5      16.7587
    1.19218e-5      17.9263
    1.19278e-5      19.1692
    1.19368e-5       21.176
    1.19458e-5      23.3529
    1.19548e-5      25.6943
    1.19638e-5      28.1892
    1.19758e-5      31.7242
    1.19908e-5      36.3924
    1.20148e-5      44.0418
    1.20268e-5      47.7184
    1.20388e-5      51.1311
    1.20478e-5      53.4403
    1.20568e-5      55.4772
    1.20658e-5      57.1941
    1.20748e-5      58.5495
    1.20838e-5        59.51
    1.20928e-5      60.0516
    1.20994e-5      60.1742
    1.21084e-5      59.9641
    1.21174e-5      59.3246
    1.21264e-5      58.2726
     1.2136e-5      56.7266
    1.21456e-5      54.7861
    1.21546e-5       52.656
    1.21636e-5      50.2754
    1.21756e-5      46.8025
    1.21966e-5      40.2578
    1.22176e-5      33.6521
    1.22296e-5      30.0484
    1.22386e-5      27.4821
    1.22476e-5      25.0563
    1.22566e-5      22.7855
    1.22656e-5      20.6785
    1.22746e-5       18.739
    1.22806e-5      17.5389
    1.22866e-5      16.4121
    1.22926e-5      15.3568
    1.22986e-5      14.3709
    1.23046e-5      13.4518
    1.23107e-5      12.5967
    1.23167e-5      11.8024
    1.23227e-5      11.0657
    1.23287e-5      10.3833
    1.23347e-5       9.7517
    1.23425e-5      9.00124
    1.23497e-5      8.37359
    1.23569e-5      7.80284
    1.23641e-5      7.28381
    1.23713e-5      6.81168
    1.23783e-5      6.39047
    1.23851e-5      6.02163
    1.23918e-5      5.68328
    1.23986e-5      5.37254
    1.24031e-5       5.1794
    1.24121e-5      4.82357
    1.24211e-5      4.50403
    1.24301e-5      4.21624
    1.24391e-5      3.95626
    1.24481e-5      3.72067
    1.24586e-5      3.47272
    1.24691e-5      3.24997
    1.24796e-5      3.04905
    1.24901e-5      2.86713
    1.25006e-5      2.70181
    1.25111e-5      2.55108
    1.25216e-5      2.41319
    1.25321e-5      2.28668
    1.25456e-5      2.13874
    1.25591e-5      2.00527
    1.25726e-5      1.88438
    1.25861e-5      1.77449
    1.25996e-5      1.67428
    1.26131e-5       1.5826
    1.26266e-5      1.49849
    1.26401e-5      1.42113
    1.26566e-5      1.33468
    1.26731e-5      1.25613
    1.26896e-5       1.1845
    1.27061e-5      1.11901
    1.27227e-5      1.05895
    1.27392e-5      1.00373
    1.27557e-5     0.952835
    1.27722e-5     0.905816
    1.27932e-5     0.850967
    1.28142e-5     0.801074
    1.28352e-5      0.75555
    1.28562e-5     0.713893
    1.28772e-5     0.675672
    1.28982e-5     0.640518
    1.29192e-5     0.608108
    1.29402e-5     0.578161
     1.2963e-5     0.548132
    1.29858e-5     0.520445
    1.30201e-5     0.482786
    1.30543e-5     0.449173
    1.30885e-5     0.419042
    1.31228e-5     0.391926
    1.31575e-5     0.367104
    1.31922e-5     0.344638
    1.32269e-5     0.324236
    1.32616e-5     0.305651
    1.32963e-5     0.288672
    1.33314e-5     0.272979
    1.33548e-5     0.263199
    1.34018e-5     0.245209
    1.34487e-5     0.229071
    1.34957e-5     0.214538
    1.35433e-5     0.201229
    1.35909e-5      0.18918
    1.36385e-5     0.178236
    1.36861e-5     0.168263
    1.37343e-5     0.159021
    1.37826e-5     0.150553
    1.38309e-5     0.142775
    1.38791e-5     0.135615
    1.39281e-5     0.128922
    1.40015e-5     0.119829
    1.40749e-5     0.111723
    1.41494e-5     0.104369
    1.42239e-5    0.0977685
    1.42987e-5    0.0917937
    1.43742e-5    0.0863444
    1.44497e-5    0.0814056
    1.45259e-5    0.0768748
    1.46025e-5    0.0727276
    1.46791e-5    0.0689388
    1.47568e-5    0.0654211
    1.48344e-5    0.0621939
    1.49387e-5    0.0582636
    1.50437e-5    0.0547174
    1.51495e-5    0.0515085
     1.5256e-5    0.0485852
    1.53632e-5    0.0459139
    1.54712e-5    0.0434708
    1.55799e-5    0.0412312
    1.56895e-5    0.0391733
    1.57998e-5     0.037278
    1.59108e-5    0.0355287
     1.6079e-5    0.0331456
    1.62487e-5    0.0310192
      1.642e-5    0.0291138
    1.65938e-5    0.0273921
    1.67692e-5    0.0258385
    1.69462e-5    0.0244316
    1.71249e-5    0.0231535
    1.73061e-5    0.0219836
     1.7489e-5     0.020915
    1.76115e-5    0.0202551
    1.78599e-5    0.0190373
    1.81119e-5    0.0179453
    1.83674e-5    0.0169624
    1.86266e-5    0.0160742
    1.88894e-5     0.015269
    1.91558e-5    0.0145397
    1.94261e-5    0.0138714
    1.97002e-5    0.0132594
    1.99781e-5    0.0126981
    2.04029e-5    0.0119386
    2.08357e-5    0.0112653
    2.12787e-5    0.0106636
      2.173e-5    0.0101255
     2.2192e-5   0.00964056
    2.28226e-5   0.00906879
    2.34711e-5   0.00856178
    2.41381e-5    0.0081139
     2.4824e-5   0.00771551
    2.55294e-5   0.00735797
    2.62548e-5   0.00703508
    2.70008e-5   0.00674363
    2.79626e-5   0.00641702
      2.896e-5   0.00612507
    3.02031e-5   0.00581505
    3.14996e-5   0.00553774
    3.28517e-5   0.00529166
    3.42618e-5   0.00507116
    3.57325e-5   0.00487093
    3.75273e-5   0.00466003
    3.94142e-5   0.00447056
     4.1394e-5   0.00430174
    4.34754e-5   0.00414481
    4.59812e-5   0.00398339
    4.82908e-5   0.00385431
    5.10742e-5   0.00371964
    5.43991e-5   0.00358095
    5.83463e-5   0.00344396
    6.21415e-5   0.00333304
    6.71207e-5   0.00321099
    7.19909e-5    0.0031121
    7.66737e-5   0.00303228
    8.22371e-5   0.00295355
    8.88264e-5   0.00287746
     9.5939e-5   0.00281563
     0.0001029   0.00276826
   0.000110367   0.00273117
    0.00011921     0.002703
   0.000128755   0.00269016
   0.000132129    0.0026887
   0.000143716   0.00270103
   0.000153071   0.00272533
   0.000161894   0.00276025
   0.000171225   0.00281029
   0.000181095   0.00287828
       0.00019   0.00295322
   0.000198156   0.00303378
   0.000206662   0.00313141
    0.00021661   0.00326608
   0.000225908   0.00341276
   0.000235395    0.0035868
   0.000244788   0.00378528
   0.000251744   0.00395313
   0.000258877   0.00414703
   0.000266233    0.0043705
   0.000272965   0.00460257
   0.000278755   0.00482351
   0.000286461   0.00515353
   0.000292552   0.00544987
   0.000298623   0.00578083
   0.000304972   0.00617071
   0.000310785   0.00657409
   0.000315346   0.00692795
   0.000319906   0.00731596
   0.000324467   0.00774837
   0.000329028   0.00822577
   0.000333589   0.00876235
   0.000336629   0.00915434
    0.00033967   0.00957844
   0.000343597    0.0101766
   0.000347224    0.0107962
   0.000350885     0.011485
   0.000354666    0.0122858
   0.000358217    0.0131315
   0.000360649    0.0137781
   0.000363921    0.0147236
   0.000366438    0.0155418
   0.000369394    0.0166128
   0.000371291    0.0173681
   0.000374027    0.0185855
   0.000375852    0.0194871
   0.000377676    0.0204788
   0.000380057    0.0219377
    0.00038168    0.0230665
    0.00038334    0.0243392
    0.00038504    0.0258305
   0.000386344    0.0271252
   0.000387649    0.0285976
   0.000388561    0.0297567
   0.000389473    0.0310523
   0.000390385    0.0325211
   0.000391297    0.0342144
   0.000391936    0.0355742
   0.000392574    0.0371053
   0.000393213    0.0388664
   0.000393851    0.0409324
   0.000394277    0.0425198
   0.000394703    0.0443238
   0.000395037    0.0459283
   0.000395372     0.047734
   0.000395706    0.0497845
   0.000396041    0.0521356
   0.000396345    0.0545955
   0.000396649    0.0574378
   0.000396877    0.0598777
   0.000397105    0.0626394
   0.000397333    0.0657898
   0.000397561    0.0694144
   0.000397713     0.072148
   0.000397865    0.0751822
   0.000398017    0.0785669
   0.000398169     0.082363
   0.000398321    0.0866455
   0.000398473    0.0915076
   0.000398595    0.0958928
   0.000398716     0.100798
   0.000398838     0.106317
   0.000398959     0.112562
   0.000399051     0.117808
   0.000399142     0.123617
   0.000399233     0.130081
   0.000399324      0.13731
   0.000399416     0.145441
   0.000399484     0.152236
    0.00039956     0.160607
   0.000399636     0.169998
   0.000399712     0.180612
   0.000399769     0.189538
   0.000399826     0.199458
   0.000399883     0.210567
    0.00039994     0.223126
   0.000399997     0.237478
   0.000400035     0.248266
   0.000400081     0.262783
   0.000400121     0.277173
    0.00040016     0.293473
     0.0004002     0.312079
   0.000400227     0.326002
   0.000400254     0.341337
    0.00040028     0.358283
   0.000400307     0.377066
   0.000400333     0.397943
    0.00040036     0.421208
   0.000400387     0.447195
   0.000400413     0.476281
    0.00040044     0.508891
    0.00040046     0.535948
    0.00040048     0.565477
   0.000400499     0.596123
   0.000400518     0.629457
   0.000400537     0.665725
   0.000400556     0.705185
   0.000400575     0.748124
   0.000400594     0.794836
   0.000400613     0.845645
   0.000400632      0.90089
   0.000400651     0.960938
    0.00040067      1.02617
   0.000400689      1.09699
   0.000400708      1.17381
   0.000400727      1.25711
   0.000400746      1.34732
   0.000400765      1.44495
   0.000400784       1.5505
   0.000400807      1.68835
   0.000400829      1.83929
   0.000400852      2.00427
   0.000400875      2.18428
   0.000400898      2.38033
   0.000400921       2.5934
   0.000400943      2.82451
   0.000400966      3.07463
   0.000400989      3.34476
   0.000401012      3.63581
   0.000401027       3.8419
   0.000401051      4.19246
   0.000401076       4.5694
     0.0004011      4.97357
   0.000401124      5.40562
   0.000401149      5.86614
   0.000401173      6.35544
   0.000401197      6.87369
   0.000401232      7.65127
   0.000401261      8.37057
   0.000401301       9.3928
    0.00040134      10.4827
    0.00040138      11.6331
   0.000401425      13.0238
   0.000401514      15.8365
   0.000401599      18.5723
   0.000401663      20.5263
   0.000401709      21.8516
   0.000401752      22.9463
   0.000401793      23.8862
    0.00040183      24.5985
   0.000401866      25.1885
   0.000401903      25.6463
   0.000401939      25.9638
   0.000401978      26.1417
      0.000402      26.1674
    0.00040203      26.1139
   0.000402073       25.866
   0.000402117      25.4069
   0.000402151      24.9137
   0.000402195      24.1177
   0.000402243      23.0419
   0.000402291      21.8156
   0.000402348       20.186
   0.000402414      18.1631
   0.000402562      13.3865
   0.000402608      11.9835
   0.000402654      10.6445
    0.00040269      9.62964
   0.000402727      8.67116
   0.000402754      7.99192
   0.000402789      7.16691
   0.000402813      6.65047
   0.000402837      6.16112
    0.00040286      5.69881
   0.000402884      5.26333
   0.000402907      4.85432
   0.000402931      4.47122
   0.000402958      4.06349
   0.000402981      3.74387
   0.000403003      3.44628
   0.000403026      3.16983
   0.000403049      2.91362
   0.000403072      2.67669
   0.000403095      2.45806
   0.000403117      2.25673
    0.00040314      2.07171
   0.000403163      1.90199
   0.000403186      1.74662
   0.000403205      1.62737
   0.000403224      1.51687
   0.000403243      1.41457
   0.000403262      1.31998
   0.000403281      1.23258
     0.0004033       1.1519
   0.000403319       1.0775
   0.000403338      1.00892
   0.000403357     0.945762
   0.000403376     0.887625
   0.000403395     0.834135
   0.000403414     0.784944
   0.000403433     0.739715
   0.000403452     0.698141
   0.000403471     0.659929
   0.000403497      0.61238
   0.000403518     0.577367
    0.00040354     0.545503
   0.000403561     0.516492
   0.000403582     0.490058
   0.000403604     0.465955
   0.000403632     0.437048
   0.000403661     0.411396
   0.000403689     0.388577
   0.000403718     0.368219
   0.000403746     0.350001
   0.000403775     0.333642
   0.000403803       0.3189
   0.000403832     0.305566
   0.000403875     0.287815
   0.000403917     0.272322
   0.000403965     0.257268
   0.000404003     0.246577
    0.00040406     0.232385
   0.000404117     0.220001
   0.000404174     0.209076
   0.000404231     0.199349
   0.000404288     0.190621
   0.000404364     0.180279
    0.00040444     0.171167
   0.000404516     0.163079
   0.000404588     0.156198
   0.000404691     0.147554
   0.000404793     0.140027
   0.000404896     0.133428
   0.000404999     0.127611
   0.000405101     0.122457
   0.000405238     0.116456
   0.000405375     0.111286
   0.000405512     0.106808
   0.000405649     0.102911
   0.000405808    0.0989811
   0.000405968    0.0956089
   0.000406181    0.0918283
   0.000406394    0.0887169
   0.000406606    0.0861487
   0.000406819    0.0840266
   0.000407138    0.0815208
