#ZVView-data-copy:  29-Jan-2019 22:42:44
#=======================================
#
#name:   ENDF/B-VIII.0: S-34(N,G)S-35
#X.axis: Incident Energy
#Y.axis: Cross Section
#wdata:  2
#ldata:  1916
#data...
#            X            Y
#          MeV        barns
         1e-11      11.2466
   1.10304e-11      10.7085
   1.21669e-11      10.1961
   1.34206e-11      9.70817
   1.48034e-11      9.24363
   1.63287e-11      8.80131
   1.80111e-11      8.38016
   1.98669e-11      7.97916
   2.19139e-11      7.59735
   2.41719e-11      7.23381
   2.66625e-11      6.88767
   2.94097e-11      6.55809
     3.244e-11      6.24428
   3.57825e-11      5.94548
   3.94694e-11      5.66099
   4.35362e-11       5.3901
   4.80221e-11      5.13218
   5.29701e-11       4.8866
    5.8428e-11      4.65277
   6.44483e-11      4.43014
   7.10888e-11      4.21815
   7.84136e-11      4.01631
   8.64931e-11      3.82412
   9.54051e-11      3.64114
   1.05235e-10       3.4669
   1.16078e-10      3.30101
   1.28039e-10      3.14305
   1.41231e-10      2.99266
   1.55784e-10      2.84945
   1.71835e-10      2.71311
    1.8954e-10      2.58328
    2.0907e-10      2.45967
   2.30612e-10      2.34197
   2.54374e-10      2.22991
   2.80584e-10       2.1232
   3.09494e-10      2.02161
   3.41383e-10      1.92487
   3.76558e-10      1.83276
   4.15358e-10      1.74506
   4.58155e-10      1.66156
   5.05362e-10      1.58205
   5.57433e-10      1.50635
   6.14869e-10      1.43427
   6.78223e-10      1.36564
   7.48105e-10      1.30029
   8.25188e-10      1.23807
   9.10213e-10      1.17883
      1.004e-9      1.12242
    1.10745e-9      1.06871
    1.22155e-9      1.01757
    1.34742e-9     0.968882
    1.48625e-9      0.92252
    1.63939e-9     0.878377
    1.80831e-9     0.836346
    1.99463e-9     0.796326
    2.20016e-9     0.758221
    2.42685e-9     0.721939
    2.67691e-9     0.687394
    2.95273e-9     0.654501
    3.25697e-9     0.623183
    3.59256e-9     0.593363
    3.96272e-9      0.56497
    4.37103e-9     0.537936
    4.82141e-9     0.512195
    5.31819e-9     0.487686
    5.86616e-9      0.46435
    6.47059e-9      0.44213
     7.1373e-9     0.420974
    7.87271e-9      0.40083
    8.68389e-9      0.38165
    9.57865e-9     0.363387
    1.05656e-8     0.345999
    1.16543e-8     0.329442
    1.28551e-8     0.313678
    1.41796e-8     0.298669
    1.56406e-8     0.284378
    1.72522e-8     0.270771
    1.90298e-8     0.257817
    2.09906e-8     0.245485
    2.31534e-8     0.233745
    2.52419e-8     0.223875
       2.53e-8     0.223618
    2.79068e-8      0.21293
    3.07823e-8     0.202753
     3.3954e-8      0.19306
    3.74525e-8     0.183827
    4.13115e-8     0.175032
    4.55681e-8     0.166659
    5.02633e-8      0.15869
    5.54423e-8     0.151104
    6.11549e-8     0.143878
    6.74561e-8     0.136991
    7.44066e-8     0.130429
    8.20732e-8      0.12418
    9.05297e-8     0.118232
    9.98577e-8     0.112571
    1.10147e-7     0.107188
    1.21496e-7     0.102068
    1.34014e-7    0.0971886
    1.47823e-7    0.0925347
    1.63054e-7     0.088101
    1.79855e-7    0.0838801
    1.98386e-7    0.0798629
    2.18827e-7    0.0760432
    2.41375e-7    0.0724147
    2.66245e-7    0.0689534
    2.93678e-7    0.0656495
    3.23938e-7    0.0625033
    3.57316e-7    0.0595085
    3.94132e-7    0.0566583
    4.34743e-7    0.0539523
     4.8292e-7    0.0512013
    5.32679e-7    0.0487473
    5.87564e-7    0.0464102
    6.48105e-7    0.0441858
    7.14884e-7    0.0420684
    7.88543e-7    0.0400531
    8.69792e-7    0.0381441
    9.66133e-7    0.0361965
    1.06568e-6    0.0344604
    1.17549e-6    0.0328081
     1.2966e-6    0.0312354
     1.4302e-6    0.0297381
    1.57757e-6     0.028313
    1.74011e-6    0.0269562
    1.90606e-6    0.0257601
    2.11718e-6    0.0244433
    2.33533e-6    0.0232716
    2.57595e-6    0.0221554
    2.84137e-6    0.0210922
    3.13414e-6    0.0200812
    3.45707e-6    0.0191183
    3.78675e-6    0.0182687
    4.20618e-6    0.0173341
    4.63957e-6    0.0165035
    5.08202e-6    0.0157667
    5.60566e-6    0.0150081
    6.18325e-6    0.0142887
    6.82035e-6     0.013602
     7.5231e-6    0.0129504
    8.41533e-6    0.0122449
     9.2174e-6    0.0116981
    1.00964e-5    0.0111754
    1.10587e-5    0.0106744
    1.21982e-5    0.0101608
     1.3455e-5   0.00967117
    1.48414e-5   0.00920608
    1.67187e-5   0.00867247
    1.84413e-5   0.00825563
    2.00585e-5   0.00791312
    2.18174e-5   0.00758437
    2.40654e-5   0.00721626
     2.6545e-5   0.00686816
    2.92802e-5     0.006536
    3.29822e-5   0.00615343
    3.66372e-5   0.00583574
      3.985e-5   0.00559203
    4.33445e-5   0.00535818
    4.74757e-5   0.00511426
    5.23674e-5   0.00486543
    5.77632e-5   0.00462723
    6.23915e-5   0.00445107
    6.69186e-5   0.00429227
    7.32966e-5   0.00409623
    7.97241e-5   0.00392269
    8.61121e-5   0.00376955
    9.36634e-5   0.00360878
   0.000103314    0.0034292
   0.000113161    0.0032698
   0.000122228   0.00314217
   0.000133878   0.00299507
   0.000146645   0.00285467
   0.000159505   0.00273031
   0.000172276   0.00262055
    0.00018608    0.0025146
   0.000203816    0.0023936
   0.000223252   0.00227889
    0.00024283   0.00217725
    0.00026785   0.00206311
   0.000291338   0.00196906
   0.000316886   0.00187883
    0.00034226   0.00179907
   0.000369684   0.00172201
   0.000399286   0.00164746
   0.000437363   0.00156263
   0.000478615   0.00148184
   0.000531654   0.00139237
   0.000582326   0.00131792
   0.000633392   0.00125175
   0.000684142   0.00119313
   0.000733174    0.0011421
   0.000786373   0.00109205
    0.00084265   0.00104409
   0.000915761  0.000988096
   0.000991348  0.000936881
    0.00106778  0.000890669
    0.00116141  0.000839795
    0.00126191  0.000791542
    0.00136303  0.000748299
    0.00146193  0.000710261
    0.00156408  0.000674744
    0.00166581  0.000642587
    0.00177426  0.000611345
    0.00191438  0.000574717
    0.00205284  0.000542651
    0.00220154  0.000511311
    0.00236128  0.000481314
     0.0025238  0.000453867
    0.00270693  0.000425814
    0.00290334  0.000398924
    0.00310621  0.000374011
    0.00328277  0.000354351
    0.00345932  0.000336332
    0.00363587  0.000319759
    0.00381242  0.000304466
    0.00403217  0.000287025
    0.00428168  0.000268957
    0.00451864  0.000253573
    0.00476143  0.000239103
    0.00504829   0.00022363
    0.00532626  0.000209998
     0.0056173  0.000197146
     0.0058898  0.000186166
    0.00622928  0.000173691
    0.00658832  0.000161852
    0.00694175  0.000151342
     0.0072924  0.000141895
    0.00764305  0.000133305
    0.00802696  0.000124781
    0.00834435  0.000118303
      0.008695  0.000111721
    0.00903902  0.000105797
    0.00945366   9.92199e-5
    0.00988838   9.30014e-5
     0.0103092   8.74723e-5
     0.0108026   8.16296e-5
      0.011304   7.62574e-5
     0.0118335   7.11667e-5
     0.0120688   6.90276e-5
     0.0126311   6.43314e-5
     0.0131733   6.02227e-5
     0.0137284   5.64126e-5
      0.014457   5.19664e-5
     0.0150776   4.85586e-5
     0.0157206   4.53714e-5
     0.0163524   4.25337e-5
     0.0169842   3.99541e-5
      0.017616    3.7603e-5
     0.0182478   3.54543e-5
      0.018867   3.35243e-5
     0.0194861   3.17498e-5
     0.0201053   3.01147e-5
     0.0207245   2.86024e-5
     0.0215266   2.68083e-5
     0.0223923     2.507e-5
     0.0234213   2.32166e-5
     0.0243687   2.16964e-5
      0.025316   2.03288e-5
     0.0264486   1.88759e-5
     0.0274026   1.77722e-5
     0.0283566   1.67693e-5
     0.0291274   1.60272e-5
     0.0301077   1.51619e-5
     0.0312196   1.42669e-5
      0.032318   1.34785e-5
     0.0331962   1.28989e-5
     0.0343131   1.22252e-5
     0.0355798   1.15313e-5
      0.036709   1.09796e-5
     0.0380233   1.03959e-5
      0.039729   9.72925e-6
     0.0409926    9.2892e-6
     0.0423486   8.86518e-6
     0.0438675   8.43773e-6
     0.0455552   8.02445e-6
     0.0473612   7.63638e-6
     0.0491374   7.30417e-6
     0.0511952   6.97681e-6
      0.053253   6.70208e-6
     0.0556504   6.44277e-6
     0.0574654   6.28314e-6
     0.0596939   6.12865e-6
      0.061639   6.02917e-6
      0.063166   5.97457e-6
     0.0647483   5.93506e-6
     0.0668043   5.91283e-6
     0.0687919   5.93045e-6
     0.0707466   5.97776e-6
     0.0723252   6.03833e-6
     0.0743328   6.15467e-6
     0.0763404   6.31473e-6
     0.0778461   6.46696e-6
     0.0793518   6.65026e-6
     0.0808575   6.87076e-6
     0.0823632   7.12698e-6
      0.083367    7.3244e-6
     0.0843708   7.54446e-6
     0.0853746   7.78968e-6
     0.0863784   8.06302e-6
     0.0873822   8.36792e-6
      0.088386   8.70843e-6
     0.0896408   9.19277e-6
     0.0906445   9.63243e-6
     0.0916484   1.01268e-5
     0.0926521   1.06844e-5
      0.093656   1.13156e-5
     0.0946598   1.20326e-5
     0.0954126   1.26326e-5
     0.0961655   1.33039e-5
     0.0969183   1.40413e-5
     0.0976712    1.4872e-5
      0.098424   1.57902e-5
     0.0989259   1.64672e-5
     0.0994278   1.71997e-5
     0.0999297   1.79937e-5
      0.100432   1.88562e-5
      0.100933   1.97951e-5
      0.101435   2.08195e-5
      0.101937     2.194e-5
      0.102439   2.31688e-5
      0.102941   2.45201e-5
      0.103443   2.60106e-5
      0.103945   2.76598e-5
      0.104447    2.9491e-5
      0.104949   3.15315e-5
      0.105451   3.38137e-5
      0.105827   3.57159e-5
      0.106203   3.77803e-5
       0.10658   4.00646e-5
      0.106956   4.25556e-5
      0.107333   4.53299e-5
      0.107709   4.83727e-5
       0.10796    5.0596e-5
      0.108211    5.2985e-5
      0.108462   5.55564e-5
      0.108713   5.83293e-5
      0.108964   6.13252e-5
      0.109215   6.45685e-5
      0.109466   6.80872e-5
      0.109717   7.19132e-5
      0.109968   7.60832e-5
      0.110219   8.06397e-5
       0.11047   8.56317e-5
      0.110721   9.11164e-5
      0.110972   9.71606e-5
      0.111222  0.000103843
      0.111473  0.000111256
      0.111724  0.000119505
      0.111913  0.000126343
      0.112101  0.000133752
      0.112289  0.000141899
      0.112477  0.000150764
      0.112665  0.000160569
      0.112854  0.000171295
      0.113042   0.00018324
       0.11323  0.000196386
      0.113356  0.000205998
      0.113481  0.000216341
      0.113606  0.000227489
      0.113732  0.000239528
      0.113857  0.000252556
      0.113983  0.000266683
      0.114108  0.000282037
      0.114234  0.000298764
      0.114359  0.000317032
      0.114485  0.000337035
       0.11461     0.000359
      0.114736  0.000383191
      0.114861  0.000409919
      0.114987  0.000439535
      0.115087  0.000465588
        0.1152  0.000497873
      0.115275   0.00052114
      0.115388  0.000559476
      0.115489  0.000597153
      0.115589  0.000638767
      0.115689  0.000684883
      0.115815  0.000749774
       0.11589  0.000793255
      0.115965  0.000840723
      0.116041  0.000892461
      0.116116  0.000949236
      0.116191   0.00101145
      0.116267   0.00108012
      0.116342   0.00115581
      0.116417   0.00123993
      0.116492   0.00133328
      0.116543   0.00140155
      0.116593   0.00147517
      0.116643   0.00155471
      0.116693   0.00164082
      0.116743   0.00173424
      0.116794   0.00183581
      0.116844   0.00194649
      0.116894   0.00206741
      0.116944   0.00219985
      0.116994   0.00234532
      0.117044   0.00250555
      0.117095   0.00268258
      0.117145   0.00287884
      0.117195   0.00309648
      0.117233   0.00327599
       0.11727   0.00347202
      0.117309   0.00369338
      0.117351   0.00395245
      0.117392   0.00423936
      0.117431   0.00453808
      0.117469   0.00485743
      0.117506   0.00521039
      0.117544   0.00560295
      0.117582   0.00604043
      0.117619   0.00652974
      0.117644   0.00688874
      0.117669   0.00727723
      0.117694   0.00769841
       0.11772   0.00815592
      0.117745   0.00865388
       0.11777   0.00919698
      0.117795   0.00979057
       0.11782    0.0104408
      0.117845    0.0111547
       0.11787    0.0119403
      0.117895    0.0128068
       0.11792    0.0137651
      0.117945    0.0148273
      0.117964    0.0157007
      0.117983    0.0166472
      0.118002    0.0176744
      0.118021    0.0187908
       0.11804    0.0200055
      0.118058    0.0213286
      0.118077    0.0227717
      0.118096    0.0243467
      0.118115    0.0260672
      0.118134    0.0279472
      0.118152    0.0300021
      0.118171    0.0322472
       0.11819    0.0346982
      0.118209    0.0373696
      0.118228    0.0402748
      0.118247    0.0434229
      0.118265     0.046818
      0.118284    0.0504556
      0.118309     0.055653
      0.118339    0.0622972
       0.11839    0.0735569
      0.118408    0.0774576
      0.118427    0.0809415
      0.118446    0.0838398
      0.118459    0.0853673
      0.118471    0.0865228
      0.118484    0.0872736
        0.1185    0.0876077
      0.118514    0.0873161
      0.118528    0.0864826
      0.118542    0.0851359
      0.118556    0.0833191
      0.118571    0.0810876
      0.118588    0.0778005
      0.118602    0.0751356
      0.118628    0.0694042
      0.118681     0.057599
      0.118706    0.0522762
      0.118725    0.0485346
      0.118743     0.045029
      0.118762    0.0417683
      0.118781    0.0387527
        0.1188    0.0359745
      0.118819    0.0334229
      0.118838    0.0310838
      0.118856     0.028942
      0.118875    0.0269818
      0.118894    0.0251881
      0.118913    0.0235461
      0.118932    0.0220423
       0.11895    0.0206637
      0.118969    0.0193989
      0.118988    0.0182369
      0.119007    0.0171682
      0.119026     0.016184
      0.119045    0.0152764
       0.11907    0.0141734
      0.119095     0.013179
       0.11912    0.0122804
      0.119145    0.0114664
       0.11917    0.0107273
      0.119195    0.0100545
       0.11922    0.0094408
      0.119245   0.00887966
       0.11927    0.0083655
      0.119296   0.00789339
      0.119321   0.00745902
      0.119346    0.0070586
      0.119371   0.00668878
      0.119396   0.00634661
      0.119434   0.00587954
      0.119471   0.00546127
        0.1195    0.0051699
      0.119533   0.00486761
      0.119565   0.00459104
      0.119598   0.00433615
      0.119638   0.00404705
      0.119675   0.00381241
      0.119711   0.00359735
      0.119747   0.00340069
      0.119783    0.0032196
      0.119819   0.00305356
      0.119855   0.00289866
      0.119905   0.00270214
      0.119956   0.00252481
      0.120006   0.00236428
      0.120056    0.0022185
      0.120106   0.00208574
      0.120156    0.0019645
      0.120206   0.00185349
      0.120257   0.00175161
      0.120307   0.00165787
      0.120357   0.00157145
      0.120407   0.00149161
      0.120457   0.00141769
      0.120533    0.0013168
      0.120608   0.00122611
      0.120683   0.00114466
      0.120759   0.00107091
      0.120834   0.00100421
      0.120909  0.000943441
      0.120984  0.000888145
       0.12106  0.000837492
      0.121135  0.000791147
      0.121198  0.000755381
      0.121311  0.000696972
      0.121411   0.00065048
      0.121499  0.000613527
      0.121587  0.000579667
      0.121675  0.000548551
      0.121762  0.000519896
      0.121856  0.000491633
      0.121951  0.000465627
      0.122045  0.000441647
      0.122139  0.000419489
      0.122233  0.000398973
      0.122327   0.00037994
      0.122468  0.000353949
      0.122578  0.000335598
      0.122641  0.000325553
      0.122766  0.000307051
      0.122892  0.000290103
      0.123017  0.000274538
      0.123143  0.000260211
      0.123268  0.000246993
      0.123394  0.000234773
      0.123519  0.000223453
      0.123644  0.000212946
       0.12377  0.000203177
      0.123958  0.000189807
      0.124146  0.000177656
      0.124335  0.000166734
      0.124523  0.000156745
      0.124711  0.000147707
      0.124899  0.000139397
      0.125087  0.000131834
      0.125276  0.000124851
      0.125527  0.000116421
      0.125778  0.000108838
      0.126028  0.000101997
      0.126279   9.58039e-5
       0.12653   9.01799e-5
      0.126781   8.50569e-5
      0.127032   8.03771e-5
      0.127283   7.60907e-5
      0.127534   7.21549e-5
      0.127785   6.85324e-5
      0.128036   6.51907e-5
      0.128287   6.21015e-5
      0.128538    5.9241e-5
      0.128913   5.53387e-5
      0.129289   5.18337e-5
      0.129663   4.86853e-5
      0.130037    4.5837e-5
      0.130411   4.32515e-5
      0.130786   4.08977e-5
       0.13116   3.87485e-5
      0.131534    3.6781e-5
      0.131908   3.49752e-5
      0.132282   3.33139e-5
      0.132656   3.17821e-5
      0.133031   3.03666e-5
      0.133405   2.90561e-5
      0.133966   2.72742e-5
      0.134527   2.56587e-5
      0.135088   2.42189e-5
       0.13565    2.2905e-5
      0.136211   2.17253e-5
      0.136772    2.0643e-5
       0.13752   1.93525e-5
      0.138269   1.82059e-5
      0.139017   1.71828e-5
      0.139765   1.62665e-5
      0.140514   1.54427e-5
      0.141512   1.44707e-5
      0.142262   1.38152e-5
      0.143262   1.30377e-5
      0.144263   1.23506e-5
      0.145263   1.17412e-5
      0.146263   1.11985e-5
      0.147263   1.07135e-5
      0.148264   1.02789e-5
      0.149264   9.88827e-6
      0.150264   9.53636e-6
      0.151264   9.21862e-6
      0.152765   8.80082e-6
      0.154265   8.43446e-6
      0.155765   8.12215e-6
      0.157266   7.84724e-6
      0.159266   7.53881e-6
      0.161267   7.28358e-6
      0.163267    7.0731e-6
      0.165268   6.90068e-6
      0.167268   6.76101e-6
      0.169269   6.64983e-6
      0.171269   6.56372e-6
       0.17327   6.49991e-6
       0.17627   6.44339e-6
      0.179271   6.42206e-6
      0.183272   6.45072e-6
      0.186273   6.51093e-6
      0.189273   6.59777e-6
      0.193274   6.76059e-6
      0.197275   6.97441e-6
      0.201276   7.24063e-6
      0.205277   7.56235e-6
      0.208278   7.84492e-6
      0.211279   8.16032e-6
      0.214279   8.52033e-6
       0.21728   8.92008e-6
      0.220281   9.37504e-6
      0.223281   9.88011e-6
      0.225282   1.02538e-5
      0.227282   1.06586e-5
      0.229283   1.10975e-5
      0.231283   1.15741e-5
      0.233284   1.20924e-5
      0.235284   1.26572e-5
      0.237285   1.32737e-5
      0.239535   1.40416e-5
      0.241786   1.48846e-5
      0.243286   1.55023e-5
      0.244787   1.61673e-5
      0.246287   1.68843e-5
      0.247787   1.76591e-5
      0.249288   1.84978e-5
      0.250688   1.93449e-5
      0.252088   2.02609e-5
      0.253489   2.12535e-5
      0.254889   2.23318e-5
      0.256489   2.36823e-5
       0.25809   2.51759e-5
       0.25969   2.68341e-5
       0.26129   2.86822e-5
      0.262491   3.02183e-5
      0.263691   3.18799e-5
      0.264891    3.3715e-5
      0.266092   3.57099e-5
      0.267292    3.7928e-5
      0.268492   4.03536e-5
      0.269292   4.21234e-5
      0.270093   4.40226e-5
      0.270893   4.60641e-5
      0.271693   4.82628e-5
      0.272493   5.06356e-5
      0.273293   5.32015e-5
      0.274094   5.59824e-5
      0.274894   5.90033e-5
      0.275694   6.22929e-5
      0.276494   6.58844e-5
      0.277294   6.98163e-5
      0.278095   7.41334e-5
      0.278895   7.88881e-5
      0.279695   8.41418e-5
      0.280495   8.99661e-5
      0.281245   9.60538e-5
      0.281745  0.000100457
      0.282245  0.000105184
      0.282756  0.000110376
      0.283276  0.000116088
      0.283536  0.000119064
      0.284176  0.000127059
      0.284816  0.000135911
      0.285416  0.000145149
      0.285936  0.000153866
      0.286416  0.000162733
      0.286897  0.000172328
      0.287377  0.000182897
      0.287857  0.000194385
      0.288337  0.000207112
      0.288817  0.000221012
      0.289297  0.000236422
      0.289777  0.000253505
      0.290257  0.000272493
      0.290657  0.000289966
      0.291058  0.000309148
      0.291458  0.000330252
      0.291858  0.000353519
      0.292258  0.000379246
      0.292658  0.000407755
