#ZVView-data-copy:  31-Jul-2018 05:20:21
#=======================================
#
#name:   ENDF/B-VIII.0: XE-128(N,G)XE-129
#X.axis: Incident Energy
#Y.axis: Cross Section
#wdata:  2
#ldata:  4899
#data...
#            X            Y
#          MeV        barns
         1e-11      261.522
   1.10304e-11      249.008
   1.21669e-11      237.092
   1.34206e-11      225.747
   1.48034e-11      214.945
   1.63287e-11       204.66
   1.80111e-11      194.866
   1.98669e-11      185.542
   2.19139e-11      176.664
   2.41719e-11       168.21
   2.66625e-11      160.161
   2.94097e-11      152.497
     3.244e-11        145.2
   3.57825e-11      138.252
   3.94694e-11      131.636
   4.35362e-11      125.338
   4.80221e-11       119.34
   5.29701e-11      113.629
    5.8428e-11      108.192
   6.44483e-11      103.015
   7.10888e-11      98.0856
   7.84136e-11      93.3921
   8.64931e-11      88.9231
   9.54051e-11       84.668
   1.05235e-10      80.6165
   1.16078e-10      76.7589
   1.28039e-10      73.0859
   1.41231e-10      69.5886
   1.55784e-10      66.2587
   1.71835e-10      63.0881
    1.8954e-10      60.0692
    2.0907e-10      57.1947
   2.30612e-10      54.4578
   2.54374e-10      51.8519
   2.80584e-10      49.3707
   3.09494e-10      47.0081
   3.41383e-10      44.7587
   3.76558e-10      42.6168
   4.15358e-10      40.5775
   4.58155e-10      38.6357
   5.05362e-10      36.7868
   5.57433e-10      35.0264
   6.14869e-10      33.3503
   6.78223e-10      31.7543
   7.48105e-10      30.2347
   8.25188e-10      28.7878
   9.10213e-10      27.4101
      1.004e-9      26.0984
    1.10745e-9      24.8494
    1.22155e-9      23.6601
    1.34742e-9      22.5278
    1.48625e-9      21.4496
    1.63939e-9       20.423
    1.80831e-9      19.4456
    1.99463e-9      18.5149
    2.20016e-9      17.6287
    2.42685e-9      16.7849
    2.67691e-9      15.9814
    2.95273e-9      15.2164
    3.25697e-9       14.488
    3.59256e-9      13.7945
    3.96272e-9      13.1341
    4.37103e-9      12.5054
    4.82141e-9      11.9067
    5.31819e-9      11.3368
    5.86616e-9      10.7943
    6.47059e-9      10.2779
     7.1373e-9      9.78621
    7.87271e-9       9.3181
    8.68389e-9      8.87223
    9.57865e-9      8.44742
    1.05656e-8      8.04267
    1.16543e-8      7.65713
    1.28551e-8      7.29011
    1.41796e-8      6.94079
    1.56406e-8      6.60833
    1.72522e-8      6.29171
    1.90298e-8      5.98998
    2.09906e-8      5.70247
    2.31534e-8      5.42868
    2.52419e-8      5.19849
       2.53e-8      5.19249
    2.79068e-8      4.94313
    3.07823e-8      4.70557
     3.3954e-8      4.47933
    3.74525e-8      4.26406
    4.13115e-8      4.05938
    4.55681e-8      3.86443
    5.02633e-8      3.67834
    5.54423e-8      3.50093
    6.11549e-8      3.33197
    6.74561e-8      3.17108
    7.44066e-8      3.01793
    8.20732e-8      2.87245
    9.05297e-8       2.7339
    9.98577e-8      2.60139
    1.10147e-7      2.47508
    1.21496e-7      2.35478
    1.34014e-7      2.24018
    1.47823e-7      2.13109
    1.63054e-7      2.02772
    1.79855e-7      1.92862
    1.98386e-7      1.83398
    2.18827e-7       1.7438
    2.41375e-7      1.65785
    2.66245e-7      1.57593
    2.93678e-7      1.49783
    3.21685e-7      1.42881
    3.57316e-7      1.35284
    3.94132e-7      1.28498
    4.34743e-7      1.22026
    4.79537e-7      1.15849
    5.28947e-7      1.09954
    5.83448e-7      1.04327
    6.43565e-7     0.989551
    7.04938e-7     0.942204
    7.72126e-7     0.896432
     8.4576e-7     0.852532
    9.26369e-7     0.810435
    1.02182e-6     0.766987
     1.1271e-6     0.725516
    1.24324e-6     0.685824
     1.3618e-6     0.650654
    1.50211e-6     0.614237
    1.64528e-6     0.581799
    1.78956e-6     0.552983
    1.94649e-6     0.525207
    2.13211e-6     0.496164
    2.33533e-6     0.468405
    2.55803e-6      0.44164
    2.80184e-6     0.415974
    3.02634e-6     0.395293
    3.26867e-6     0.374994
    3.53057e-6     0.355414
    3.81327e-6     0.336542
    4.08996e-6     0.319934
    4.38673e-6     0.303852
    4.73822e-6     0.286702
    5.15372e-6     0.268774
    5.56639e-6     0.252912
     6.0124e-6     0.237693
    6.49383e-6     0.223039
    6.96502e-6     0.210247
     7.5231e-6     0.196687
    8.06897e-6     0.184839
    8.59383e-6     0.174563
    9.15328e-6     0.164665
    9.74868e-6     0.155146
    1.03106e-5     0.146977
    1.09049e-5     0.139091
    1.16148e-5      0.13053
    1.23703e-5     0.122388
    1.30833e-5     0.115425
     1.3935e-5     0.107922
    1.47382e-5     0.101544
    1.55876e-5    0.0954544
    1.64861e-5    0.0896153
    1.73142e-5    0.0848002
    1.81848e-5    0.0800855
    1.92329e-5    0.0749756
    2.03414e-5    0.0701295
    2.13632e-5     0.066087
    2.24374e-5    0.0622354
    2.35644e-5    0.0585763
    2.45759e-5    0.0555748
    2.58116e-5    0.0522486
    2.69195e-5    0.0495311
     2.8075e-5    0.0469383
    2.92802e-5    0.0444656
    3.07509e-5    0.0417262
    3.22971e-5    0.0391636
    3.39194e-5      0.03674
    3.56249e-5     0.034473
    3.74143e-5    0.0323559
    3.90203e-5    0.0306466
    4.06952e-5    0.0290408
    4.24421e-5    0.0275356
    4.42639e-5    0.0261278
    4.58428e-5    0.0250221
    4.78105e-5    0.0237873
    4.95135e-5     0.022827
    5.12797e-5    0.0219298
    5.34808e-5    0.0209356
    5.57765e-5    0.0200418
    5.77632e-5    0.0193745
    6.02426e-5    0.0186624
    6.23915e-5    0.0181618
    6.46138e-5    0.0177517
    6.69186e-5     0.017437
    6.88201e-5    0.0172807
    7.07483e-5    0.0172206
    7.12168e-5    0.0172172
     7.2731e-5    0.0172746
    7.42737e-5    0.0174104
    7.58529e-5     0.017664
    7.69231e-5    0.0179047
    7.80083e-5    0.0182208
    7.91089e-5    0.0186283
     7.9663e-5    0.0188725
    8.10719e-5    0.0196271
    8.19267e-5    0.0202004
    8.27936e-5     0.020892
    8.36686e-5     0.021722
    8.45518e-5    0.0227304
    8.51462e-5    0.0235293
    8.57447e-5    0.0244312
    8.63474e-5    0.0254774
    8.69544e-5    0.0266788
      8.726e-5    0.0273557
    8.78713e-5    0.0288755
    8.83361e-5    0.0301919
     8.8801e-5    0.0316848
    8.92681e-5    0.0333846
    8.97396e-5    0.0353318
     9.0211e-5    0.0375728
    9.05275e-5    0.0392709
    9.08463e-5    0.0411609
     9.1165e-5    0.0432569
    9.14837e-5    0.0455899
    9.18047e-5    0.0482117
    9.21279e-5    0.0511774
    9.24512e-5    0.0545328
    9.26936e-5    0.0573456
     9.2936e-5    0.0604483
    9.31818e-5    0.0639264
    9.34277e-5    0.0677836
    9.36735e-5     0.072079
    9.39194e-5    0.0769027
    9.41652e-5    0.0823402
    9.44074e-5    0.0883984
    9.45676e-5    0.0928526
    9.47279e-5    0.0977066
    9.48881e-5     0.103001
    9.50483e-5     0.108794
    9.52085e-5      0.11516
    9.53688e-5     0.122184
     9.5529e-5     0.129954
     9.5703e-5     0.139366
    9.58771e-5     0.149953
    9.59931e-5     0.157761
    9.61091e-5     0.166248
    9.62252e-5     0.175495
    9.63412e-5     0.185597
    9.64572e-5     0.196671
    9.65815e-5     0.209766
    9.67058e-5     0.224318
    9.68301e-5     0.240549
    9.69544e-5     0.258726
    9.70373e-5     0.272082
    9.71202e-5     0.286558
    9.72321e-5     0.308112
    9.73067e-5     0.323931
    9.73813e-5     0.341061
    9.74558e-5     0.359652
    9.75304e-5     0.379877
     9.7605e-5     0.401932
    9.76796e-5      0.42605
    9.77459e-5     0.449433
    9.78329e-5     0.483285
    9.79199e-5     0.521263
     9.7978e-5     0.549216
     9.8036e-5     0.579558
     9.8094e-5     0.612573
     9.8152e-5     0.648585
    9.82059e-5      0.68504
    9.82556e-5     0.721578
    9.83053e-5     0.761216
     9.8355e-5     0.804324
    9.84048e-5     0.851328
    9.84545e-5     0.902724
    9.85042e-5     0.959091
    9.85539e-5       1.0211
    9.85974e-5      1.08062
    9.86534e-5      1.16541
    9.86907e-5      1.22783
     9.8728e-5      1.29559
    9.87653e-5      1.36935
    9.88026e-5      1.44985
    9.88399e-5      1.53799
    9.88771e-5      1.63478
    9.89103e-5      1.72908
    9.89434e-5      1.83219
    9.89766e-5      1.94533
    9.90097e-5       2.0699
    9.90429e-5      2.20763
    9.90761e-5       2.3606
    9.91092e-5      2.53141
    9.91341e-5      2.67314
    9.91548e-5      2.80153
    9.91796e-5      2.96971
    9.92045e-5      3.15568
    9.92294e-5      3.36265
    9.92542e-5      3.59468
    9.92729e-5       3.7883
    9.92915e-5      4.00181
    9.93102e-5       4.2387
    9.93288e-5      4.50331
    9.93464e-5      4.78349
     9.9362e-5      5.05965
    9.93775e-5      5.36777
     9.9393e-5      5.71342
    9.94086e-5      6.10325
    9.94241e-5       6.5452
    9.94345e-5      6.87337
    9.94448e-5      7.23206
    9.94552e-5      7.62484
    9.94656e-5      8.05571
    9.94759e-5      8.52909
    9.94863e-5      9.04989
    9.94966e-5      9.62354
     9.9507e-5       10.256
    9.95153e-5      10.8088
    9.95236e-5      11.4071
    9.95319e-5      12.0548
    9.95402e-5      12.7562
    9.95484e-5      13.5157
    9.95567e-5      14.3382
     9.9565e-5      15.2287
    9.95733e-5      16.1927
    9.95816e-5      17.2359
    9.95899e-5      18.3643
    9.95982e-5      19.5843
    9.96065e-5      20.9026
    9.96147e-5      22.3263
     9.9623e-5      23.8624
    9.96313e-5      25.5187
    9.96396e-5      27.3029
    9.96489e-5      29.4732
    9.96582e-5      31.8274
    9.96676e-5      34.3778
    9.96769e-5      37.1365
    9.96862e-5      40.1162
    9.96955e-5      43.3293
    9.97049e-5      46.7884
    9.97142e-5      50.5058
    9.97235e-5      54.4937
    9.97328e-5      58.7636
    9.97444e-5      64.4882
    9.97552e-5       70.228
     9.9766e-5       76.391
    9.97768e-5      82.9897
    9.97875e-5      90.0344
    9.97983e-5      97.5325
    9.98091e-5      105.489
    9.98199e-5      113.904
    9.98331e-5      124.888
    9.98489e-5      138.812
    9.98646e-5      153.653
    9.98804e-5      169.348
    9.99015e-5      191.605
     9.9923e-5      215.444
     9.9996e-5      299.253
   0.000100023      328.703
   0.000100048      353.636
   0.000100068      371.213
   0.000100088       386.34
   0.000100108      398.634
   0.000100128      407.776
   0.000100147      413.458
   0.000100163      415.575
    0.00010017       415.75
   0.000100184      414.851
   0.000100199      411.763
   0.000100215      406.394
   0.000100232      398.158
   0.000100252      385.741
   0.000100269      373.231
   0.000100287      357.783
    0.00010031      335.594
   0.000100336      306.916
   0.000100379      258.475
   0.000100417      214.745
   0.000100439      190.094
   0.000100462      166.713
   0.000100478      150.397
   0.000100495      135.042
   0.000100507      124.195
    0.00010052      113.944
   0.000100533        103.6
   0.000100543      96.2106
   0.000100553       89.226
   0.000100564      82.6414
   0.000100574      76.4501
   0.000100584      70.6436
   0.000100594      65.2116
   0.000100604      60.1424
   0.000100616      54.6842
   0.000100626      50.3742
   0.000100636      46.3797
   0.000100646       42.684
   0.000100656       39.273
   0.000100666      36.1299
   0.000100677      33.2394
   0.000100687      30.5854
   0.000100697       28.153
   0.000100707      25.9267
   0.000100717      23.8925
   0.000100725      22.3562
   0.000100734      20.9322
   0.000100742      19.6129
    0.00010075      18.3917
   0.000100758      17.2617
   0.000100767      16.2168
   0.000100775      15.2508
   0.000100783      14.3583
   0.000100792      13.5335
     0.0001008      12.7717
   0.000100808      12.0679
   0.000100816      11.4179
   0.000100825      10.8172
   0.000100833      10.2622
   0.000100841        9.749
    0.00010085       9.2744
    0.00010086      8.73045
    0.00010087      8.23622
   0.000100881      7.78654
   0.000100891      7.37687
   0.000100901      7.00295
   0.000100912      6.66115
   0.000100922      6.34804
   0.000100938      5.92576
   0.000100953      5.55261
   0.000100969      5.22114
   0.000100984      4.92515
      0.000101      4.65941
   0.000101015      4.41958
   0.000101036      4.14055
   0.000101056      3.89267
   0.000101076      3.67076
   0.000101096      3.47072
   0.000101116      3.28925
   0.000101137      3.12373
   0.000101163      2.92421
    0.00010119      2.74526
   0.000101217      2.58376
   0.000101247       2.4212
   0.000101281      2.26019
   0.000101314      2.11565
   0.000101347      1.98525
    0.00010138      1.86709
   0.000101413      1.75962
   0.000101446      1.66153
   0.000101479      1.57171
   0.000101517      1.47939
   0.000101558      1.38633
     0.0001016      1.30205
   0.000101641      1.22545
   0.000101682      1.15559
   0.000101724       1.0917
   0.000101765      1.03311
   0.000101807     0.979225
   0.000101852     0.924802
   0.000101902     0.870574
   0.000101952      0.82109
   0.000102002     0.775805
   0.000102051     0.734248
   0.000102101     0.696013
   0.000102151     0.660751
   0.000102225     0.612777
   0.000102292     0.574472
   0.000102358     0.539723
   0.000102424       0.5081
    0.00010249     0.479238
   0.000102557     0.452824
   0.000102623     0.428587
   0.000102689     0.406293
   0.000102756      0.38574
   0.000102839     0.362226
   0.000102921     0.340857
   0.000103004     0.321379
   0.000103087     0.303574
    0.00010317     0.287254
   0.000103253      0.27226
   0.000103336     0.258451
   0.000103419     0.245706
   0.000103526     0.230556
   0.000103634     0.216827
   0.000103742     0.204346
    0.00010385     0.192961
   0.000103957     0.182543
   0.000104065     0.172983
   0.000104173     0.164189
   0.000104281     0.156085
   0.000104413     0.146954
   0.000104546     0.138651
   0.000104678     0.131078
   0.000104811     0.124152
   0.000104944     0.117802
   0.000105076     0.111967
   0.000105275     0.104067
   0.000105424    0.0987286
    0.00010559    0.0933047
   0.000105756    0.0883522
   0.000105922    0.0838237
   0.000106087    0.0796772
   0.000106253     0.075871
   0.000106502    0.0707201
   0.000106667    0.0676171
   0.000106856    0.0643779
   0.000107138    0.0599971
    0.00010742    0.0561058
   0.000107702     0.052651
   0.000107984    0.0495761
   0.000108267      0.04681
   0.000108553    0.0442969
   0.000108838    0.0420296
   0.000109123    0.0399816
   0.000109504    0.0375477
   0.000109887    0.0353718
   0.000110274    0.0334234
   0.000110661    0.0316882
   0.000111048     0.030136
   0.000111432    0.0287533
   0.000111814    0.0275154
   0.000112386    0.0258741
   0.000112966    0.0244321
   0.000113562    0.0231513
   0.000114159    0.0220273
   0.000114761    0.0210273
   0.000115366    0.0201448
   0.000115971    0.0193658
   0.000116789    0.0184494
   0.000117607     0.017668
   0.000118437    0.0169806
   0.000119267    0.0163853
   0.000120108    0.0158608
   0.000120949     0.015408
   0.000121803    0.0150002
   0.000123088    0.0144835
   0.000124386    0.0140561
   0.000125702    0.0137007
   0.000127031    0.0134068
   0.000128823    0.0130935
    0.00013064    0.0128604
   0.000132484    0.0126927
   0.000134353    0.0125792
   0.000137621    0.0124955
    0.00013804    0.0124938
   0.000140962    0.0125453
   0.000142937    0.0126222
   0.000144954    0.0127333
   0.000148029    0.0129807
   0.000150987    0.0132931
      0.000154    0.0136872
   0.000156173     0.014019
    0.00015929    0.0145805
      0.000162    0.0151476
    0.00016485    0.0158415
     0.0001677    0.0166346
     0.0001696    0.0172317
     0.0001715    0.0178879
     0.0001734    0.0186094
     0.0001753    0.0194037
     0.0001772    0.0202794
   0.000179271    0.0213381
   0.000181342    0.0225203
   0.000183413    0.0238444
   0.000185484    0.0253299
   0.000187222    0.0267245
   0.000188961    0.0282693
    0.00019012    0.0293979
   0.000191461    0.0308121
   0.000193367    0.0330372
    0.00019506     0.035271
   0.000196436    0.0372938
   0.000197812    0.0395457
   0.000198906    0.0414653
        0.0002    0.0435777
    0.00020114    0.0459825
    0.00020228    0.0486185
    0.00020342    0.0515192
    0.00020456    0.0547178
   0.000205558    0.0577974
   0.000206555    0.0611966
   0.000207553     0.064905
    0.00020855    0.0689716
   0.000209548    0.0734921
    0.00021045    0.0780108
   0.000211305    0.0827183
    0.00021216    0.0878979
   0.000213015    0.0936153
    0.00021387    0.0999474
   0.000214725     0.106986
    0.00021558     0.114838
   0.000216435     0.123636
   0.000217005     0.130103
   0.000217575     0.137071
   0.000218145     0.144668
   0.000218715     0.152965
   0.000219285     0.162028
   0.000219855     0.171954
   0.000220425     0.182857
   0.000220995     0.194869
   0.000221565     0.208146
   0.000222135     0.222874
   0.000222705     0.239273
   0.000223133     0.252825
    0.00022356     0.267594
   0.000223988     0.283731
   0.000224415     0.301411
   0.000224843     0.320838
    0.00022527     0.342251
   0.000225697      0.36593
   0.000226125     0.392208
   0.000226553     0.421482
    0.00022698     0.454224
   0.000227265     0.478246
    0.00022755     0.504215
   0.000227835     0.532351
    0.00022812     0.562979
   0.000228429     0.599339
   0.000228738     0.639396
   0.000229046     0.683673
   0.000229355     0.732797
   0.000229581     0.772174
   0.000229806     0.814857
   0.000230044     0.863779
   0.000230323     0.927184
   0.000230593     0.995542
   0.000230822      1.05954
   0.000231018      1.11949
   0.000231255      1.19931
   0.000231487      1.28575
   0.000231712      1.37937
   0.000231884      1.45795
   0.000232063      1.54658
   0.000232241      1.64363
   0.000232419       1.7502
   0.000232597      1.86758
   0.000232775       1.9973
   0.000232953      2.14115
   0.000233131      2.30127
   0.000233309      2.48024
   0.000233428      2.61151
   0.000233547      2.75359
   0.000233666      2.90771
   0.000233784      3.07526
   0.000233903      3.25787
   0.000234022      3.45741
   0.000234141      3.67606
   0.000234259      3.91635
   0.000234378      4.18126
   0.000234497      4.47431
   0.000234616      4.79965
   0.000234705      5.06781
   0.000234794      5.35938
   0.000234883       5.6772
   0.000234972      6.02453
   0.000235061       6.4052
    0.00023515      6.82368
   0.000235243      7.30465
   0.000235335      7.83918
   0.000235428      8.43567
   0.000235521      9.10426
   0.000235582      9.59604
   0.000235644      10.1296
   0.000235715      10.8038
   0.000235787      11.5492
   0.000235858      12.3767
   0.000235929      13.2989
      0.000236      14.3315
   0.000236048      15.0904
   0.000236095      15.9133
   0.000236143       16.808
    0.00023619      17.7834
   0.000236238      18.8499
   0.000236285      20.0198
   0.000236333      21.3078
    0.00023638      22.7311
   0.000236423       24.145
   0.000236461      25.5228
   0.000236499      27.0301
   0.000236537      28.6849
   0.000236575      30.5083
   0.000236613      32.5255
   0.000236651      34.7667
   0.000236689      37.2677
   0.000236723      39.7946
   0.000236754      42.3027
   0.000236785       45.073
   0.000236816      48.1424
   0.000236847      51.5535
   0.000236878      55.3549
   0.000236901      58.4952
   0.000236924      61.9121
   0.000236947      65.6346
   0.000236968      69.1748
   0.000236993      73.9576
   0.000237018        79.22
   0.000237043      85.0125
   0.000237068      91.3892
   0.000237093      98.4074
   0.000237119      106.127
   0.000237144      114.611
   0.000237166      122.916
   0.000237186      130.851
   0.000237206      139.374
   0.000237226      148.515
   0.000237246      158.307
   0.000237266      168.775
   0.000237286      179.947
   0.000237316      198.072
   0.000237342      214.957
   0.000237367      233.111
