#ZVView-data-copy:  31-Jul-2018 05:21:18
#=======================================
#
#name:   ENDF/B-VIII.0: XE-129(N,G)XE-130
#X.axis: Incident Energy
#Y.axis: Cross Section
#wdata:  2
#ldata:  16025
#data...
#            X            Y
#          MeV        barns
         1e-11      1055.76
   1.10304e-11      1005.24
   1.21669e-11      957.143
   1.34206e-11      911.343
   1.48034e-11      867.734
   1.63287e-11      826.213
   1.80111e-11      786.678
   1.98669e-11      749.034
   2.19139e-11      713.192
   2.41719e-11      679.066
   2.66625e-11      646.572
   2.94097e-11      615.633
     3.244e-11      586.174
   3.57825e-11      558.125
   3.94694e-11      531.419
   4.35362e-11       505.99
   4.80221e-11      481.778
   5.29701e-11      458.724
    5.8428e-11      436.774
   6.44483e-11      415.874
   7.10888e-11      395.974
   7.84136e-11      377.026
   8.64931e-11      358.985
   9.54051e-11      341.808
   1.05235e-10      325.452
   1.16078e-10      309.879
   1.28039e-10      295.051
   1.41231e-10      280.933
   1.55784e-10       267.49
   1.71835e-10       254.69
    1.8954e-10      242.503
    2.0907e-10      230.899
   2.30612e-10      219.851
   2.54374e-10      209.331
   2.80584e-10      199.314
   3.09494e-10      189.777
   3.41383e-10      180.696
   3.76558e-10       172.05
   4.15358e-10      163.817
   4.58155e-10      155.978
   5.05362e-10      148.515
   5.57433e-10      141.408
   6.14869e-10      134.642
   6.78223e-10      128.199
   7.48105e-10      122.065
   8.25188e-10      116.224
   9.10213e-10      110.663
      1.004e-9      105.368
    1.10745e-9      100.326
    1.22155e-9      95.5256
    1.34742e-9      90.9548
    1.48625e-9      86.6028
    1.63939e-9       82.459
    1.80831e-9      78.5135
    1.99463e-9      74.7568
    2.20016e-9      71.1799
    2.42685e-9      67.7741
    2.67691e-9      64.5314
    2.95273e-9      61.4438
    3.25697e-9       58.504
    3.59256e-9      55.7049
    3.96272e-9      53.0399
    4.37103e-9      50.5025
    4.82141e-9      48.0867
    5.31819e-9      45.7869
    5.86616e-9      43.5977
    6.47059e-9      41.5139
     7.1373e-9      39.5303
    7.87271e-9      37.6417
    8.68389e-9       35.843
    9.57865e-9      34.1293
    1.05656e-8      32.4967
    1.16543e-8      30.9417
    1.28551e-8      29.4615
    1.41796e-8      28.0529
    1.56406e-8      26.7124
    1.72522e-8      25.4359
    1.90298e-8      24.2197
    2.09906e-8       23.061
    2.31534e-8      21.9579
    2.52419e-8      21.0307
       2.53e-8      21.0066
    2.79068e-8      20.0023
    3.07823e-8      19.0456
     3.3954e-8      18.1346
    3.74525e-8      17.2678
    4.13115e-8       16.444
    4.55681e-8      15.6603
    5.02633e-8      14.9124
    5.54423e-8      14.1993
    6.11549e-8      13.5204
    6.74561e-8      12.8743
    7.44066e-8      12.2595
    8.20732e-8      11.6752
    9.05297e-8      11.1206
    1.00562e-7      10.5537
    1.10924e-7      10.0501
    1.22353e-7      9.57087
     1.3496e-7      9.11489
    1.48866e-7      8.68106
    1.64204e-7      8.26979
    1.82392e-7      7.85154
    2.01185e-7      7.47849
    2.21915e-7      7.12367
     2.4478e-7      6.78625
    2.70002e-7      6.46539
    2.97822e-7      6.16034
    3.28508e-7      5.87058
    3.64913e-7      5.57806
    4.02512e-7      5.31657
    4.43986e-7      5.06827
    4.89733e-7      4.83274
    5.40194e-7      4.60931
    5.95854e-7      4.39845
    6.61852e-7      4.18417
    7.30048e-7       3.9949
     8.0527e-7      3.81581
    8.88242e-7      3.64703
    9.79764e-7       3.4882
    1.08072e-6      3.33914
    1.18378e-6      3.21029
    1.30575e-6      3.07983
     1.4302e-6      2.96734
    1.56659e-6      2.86333
    1.72801e-6       2.7608
    1.90606e-6      2.66973
    2.10245e-6      2.58995
    2.31908e-6      2.52324
    2.50478e-6      2.48257
    2.70547e-6      2.44999
    2.96333e-6      2.42673
    3.12104e-6      2.42263
    3.37112e-6      2.43068
    3.61572e-6      2.45555
    3.85091e-6      2.49569
     4.1016e-6      2.55707
    4.33801e-6      2.63407
    4.55591e-6      2.72339
    4.75147e-6      2.82041
    4.95543e-6      2.94098
    5.13219e-6      3.06383
    5.31499e-6      3.21143
    5.46602e-6      3.35161
    5.62134e-6       3.5155
    5.78107e-6      3.70817
    5.90399e-6      3.87564
    6.02922e-6      4.06598
    6.15741e-6      4.28437
    6.28802e-6      4.53509
    6.42172e-6      4.82606
    6.51232e-6      5.04604
    6.60419e-6      5.29043
    6.69737e-6      5.56168
    6.79185e-6      5.86589
    6.88767e-6      6.20932
    6.98485e-6      6.59768
    7.08339e-6      7.03919
    7.15817e-6      7.41103
    7.23364e-6      7.82319
    7.31018e-6      8.28402
    7.38744e-6      8.79915
    7.46543e-6      9.37754
    7.54414e-6      10.0301
    7.62397e-6      10.7741
    7.67756e-6      11.3271
    7.73153e-6      11.9333
    7.78588e-6      12.5999
    7.84061e-6      13.3353
    7.89572e-6      14.1497
    7.95122e-6      15.0548
    8.00712e-6      16.0641
     8.0634e-6      17.1935
    8.10581e-6      18.1311
    8.14862e-6      19.1644
    8.19143e-6      20.2962
    8.23464e-6      21.5509
    8.27806e-6      22.9401
    8.32147e-6      24.4764
    8.36549e-6      26.2069
    8.40952e-6      28.1378
    8.45375e-6      30.3124
    8.48352e-6      31.9277
    8.51328e-6      33.6816
    8.54304e-6      35.5906
    8.57302e-6      37.6889
     8.6032e-6       40.003
    8.63339e-6      42.5454
    8.66357e-6      45.3471
    8.69397e-6      48.4676
    8.72458e-6      51.9578
    8.74754e-6      54.8368
    8.77049e-6      57.9695
    8.79345e-6      61.3875
    8.81662e-6      65.1637
    8.83991e-6      69.3305
    8.86319e-6      73.9218
    8.88647e-6      78.9978
    8.90975e-6      84.6301
    8.93246e-6      90.7415
    8.95402e-6      97.1966
    8.97558e-6      104.386
    8.99714e-6      112.428
    9.01152e-6      118.331
    9.02589e-6      124.723
    9.04026e-6      131.663
     9.0597e-6       142.03
    9.07265e-6      149.655
    9.08561e-6      157.928
    9.09856e-6      166.925
    9.11152e-6      176.734
    9.12447e-6      187.458
    9.13743e-6      199.217
    9.14931e-6      211.025
     9.1601e-6      222.721
     9.1709e-6      235.448
    9.18169e-6      249.332
    9.19249e-6      264.524
    9.20329e-6      281.195
    9.21408e-6      299.552
    9.22488e-6      319.835
    9.23388e-6      338.416
    9.24467e-6       363.02
    9.25547e-6      390.523
    9.26267e-6      410.705
    9.26986e-6      432.558
    9.27706e-6      456.277
    9.28426e-6      482.081
    9.29347e-6      518.561
    9.30189e-6      555.787
    9.31031e-6      597.295
    9.31874e-6      643.741
    9.32435e-6      677.821
    9.32996e-6       714.69
    9.33594e-6      757.304
    9.34227e-6      806.705
    9.34861e-6      860.933
    9.35494e-6      920.532
    9.36099e-6      982.974
    9.36674e-6         1048
     9.3725e-6      1118.97
    9.37826e-6      1196.41
    9.38402e-6      1280.89
    9.38977e-6      1372.98
    9.39553e-6      1473.25
    9.40129e-6      1582.26
    9.40705e-6      1700.57
    9.41281e-6      1828.68
    9.41857e-6      1967.02
    9.42432e-6      2115.97
    9.43008e-6      2275.79
    9.43584e-6      2446.59
     9.4416e-6      2628.35
    9.45023e-6      2921.02
    9.45887e-6      3236.23
    9.46751e-6      3571.15
    9.47902e-6      4041.11
    9.50206e-6      5006.02
    9.51357e-6      5463.04
    9.52206e-6      5771.88
    9.53027e-6      6038.07
    9.53847e-6      6264.92
    9.54697e-6      6451.04
    9.55273e-6      6545.91
    9.55848e-6      6613.69
    9.56424e-6      6653.32
    9.56954e-6      6664.37
    9.57714e-6      6637.48
    9.58497e-6      6557.93
    9.59073e-6      6467.18
    9.59764e-6      6324.44
    9.60455e-6       6147.8
    9.61319e-6      5885.23
    9.62182e-6      5584.25
    9.63334e-6      5139.16
    9.65349e-6      4301.48
    9.66789e-6      3706.68
    9.67652e-6      3366.08
    9.68516e-6      3043.54
     9.6938e-6      2742.32
    9.69956e-6       2554.4
    9.70531e-6      2377.22
    9.71107e-6       2210.9
    9.71683e-6      2055.42
    9.72259e-6      1910.61
    9.72834e-6      1776.17
     9.7341e-6      1651.73
    9.73986e-6      1536.82
    9.74562e-6      1430.94
    9.75138e-6      1333.55
    9.75714e-6      1244.08
    9.76289e-6      1161.98
    9.76865e-6      1086.69
    9.77441e-6      1017.67
    9.78017e-6        954.4
    9.78592e-6      896.386
    9.79283e-6      833.058
    9.79888e-6      782.728
    9.80493e-6      736.663
    9.81097e-6       694.45
    9.81702e-6      655.711
    9.82407e-6      614.453
    9.83012e-6      582.117
    9.83616e-6      552.288
    9.84523e-6       511.72
     9.8543e-6      475.538
    9.86337e-6      443.138
    9.86942e-6      423.386
    9.87805e-6      397.433
    9.88669e-6      373.851
    9.89533e-6      352.355
    9.90396e-6      332.702
     9.9126e-6      314.682
    9.92124e-6      298.118
    9.92987e-6      282.852
    9.93851e-6      268.751
    9.95003e-6      251.558
    9.96154e-6      235.988
    9.97306e-6      221.839
    9.98458e-6      208.941
    9.99609e-6      197.148
    1.00076e-5      186.337
    1.00191e-5      176.399
    1.00306e-5      167.243
     1.0045e-5      156.775
    1.00594e-5      147.266
    1.00738e-5      138.603
    1.00882e-5      130.686
    1.01026e-5      123.433
     1.0117e-5      116.771
    1.01314e-5      110.636
    1.01458e-5      104.975
    1.01631e-5      98.7389
    1.01803e-5      93.0445
    1.01976e-5        87.83
    1.02149e-5      83.0425
    1.02322e-5      78.6361
    1.02494e-5      74.5708
    1.02754e-5      69.0385
    1.03021e-5      63.9435
    1.03293e-5      59.3226
    1.03565e-5      55.1852
    1.03837e-5       51.466
    1.04109e-5      48.1101
    1.04383e-5      45.0576
    1.04659e-5      42.2608
    1.04935e-5      39.7154
     1.0521e-5      37.3924
    1.05486e-5      35.2668
    1.05762e-5      33.3168
    1.06042e-5      31.4996
    1.06322e-5      29.8267
    1.06695e-5      27.7953
    1.07068e-5      25.9641
    1.07443e-5      24.2966
    1.07822e-5      22.7742
      1.082e-5      21.3903
    1.08578e-5      20.1285
    1.08959e-5      18.9672
    1.09343e-5      17.8964
    1.09727e-5      16.9136
     1.1011e-5      16.0095
    1.10496e-5      15.1704
    1.10886e-5      14.3906
    1.11469e-5      13.3298
    1.12055e-5      12.3788
    1.12647e-5      11.5182
    1.13239e-5      10.7437
    1.13836e-5      10.0383
    1.14436e-5      9.39751
    1.15037e-5      8.81643
    1.15645e-5       8.2808
    1.16254e-5      7.79283
    1.16865e-5      7.34505
    1.17482e-5      6.93142
      1.181e-5       6.5521
    1.18723e-5      6.20025
    1.19557e-5      5.77216
    1.20398e-5      5.38491
    1.21244e-5      5.03358
    1.22096e-5      4.71396
    1.22955e-5      4.42245
    1.23819e-5       4.1559
    1.24689e-5      3.91164
    1.25566e-5      3.68735
    1.26448e-5      3.48131
    1.27337e-5      3.29167
    1.28232e-5      3.11594
    1.29134e-5        2.953
    1.30041e-5      2.80191
    1.30956e-5      2.66161
    1.32336e-5      2.46961
    1.33737e-5      2.29621
     1.3515e-5      2.13989
    1.36577e-5      1.99852
    1.38017e-5      1.87031
    1.39477e-5      1.75319
    1.40951e-5      1.64646
    1.42439e-5      1.54894
    1.43941e-5      1.45964
    1.45464e-5      1.37732
    1.47002e-5      1.30164
    1.48553e-5      1.23191
     1.5012e-5      1.16756
    1.51708e-5      1.10778
    1.53312e-5      1.05243
    1.55474e-5     0.984746
    1.57668e-5     0.923253
    1.59892e-5      0.86724
    1.62148e-5     0.816174
    1.64436e-5      0.76955
    1.66756e-5     0.726574
    1.69108e-5     0.687066
    1.71494e-5     0.650671
    1.73914e-5     0.617079
    1.76367e-5      0.58603
    1.78855e-5     0.557272
    1.81379e-5      0.53059
    1.83938e-5      0.50579
    1.87839e-5     0.471786
    1.91833e-5     0.441076
    1.95902e-5     0.413382
    1.98666e-5     0.396437
     2.0289e-5     0.372847
    2.07194e-5     0.351371
    2.11599e-5     0.331711
    2.16087e-5     0.313753
    2.20682e-5     0.297238
    2.25363e-5     0.282088
    2.30154e-5     0.268102
    2.35036e-5     0.255224
    2.40034e-5     0.243289
    2.45125e-5     0.232251
    2.52091e-5     0.218714
    2.59254e-5     0.206476
    2.66621e-5     0.195333
    2.74197e-5     0.185176
    2.80027e-5     0.178213
    2.87984e-5     0.169534
    2.98242e-5     0.159795
    3.06716e-5     0.152707
    3.15432e-5     0.146228
    3.24395e-5     0.140308
    3.33613e-5     0.134901
    3.43092e-5     0.129969
     3.5533e-5     0.124419
    3.67987e-5     0.119484
    3.81113e-5     0.115189
    3.94688e-5     0.111427
    4.08767e-5     0.108243
    4.23326e-5      0.10558
    4.38427e-5     0.103449
    4.57246e-5     0.101618
    4.73533e-5     0.100734
    4.89775e-5     0.100417
    5.07245e-5     0.100784
    5.25313e-5     0.101866
     5.4024e-5     0.103367
    5.55591e-5     0.105468
    5.71378e-5     0.108353
    5.83527e-5     0.111076
    5.95905e-5     0.114359
    6.08575e-5      0.11831
    6.21484e-5     0.123031
    6.34697e-5     0.128731
    6.43652e-5     0.133149
    6.57305e-5     0.140905
    6.66578e-5     0.146952
    6.75982e-5     0.153888
    6.85519e-5     0.161751
    6.95191e-5     0.170858
    7.02547e-5      0.17864
    7.09972e-5     0.187334
    7.17467e-5     0.197104
    7.25031e-5     0.208135
    7.32703e-5      0.22068
    7.40447e-5     0.235006
    7.48263e-5     0.251431
    7.53523e-5     0.263788
     7.5882e-5     0.277447
    7.64154e-5       0.2926
    7.69526e-5     0.309478
    7.74935e-5     0.328356
    7.80382e-5     0.349567
    7.84496e-5     0.367097
    7.88611e-5     0.386399
    7.92783e-5     0.407895
    7.96955e-5     0.431557
    8.01147e-5     0.457819
    8.05378e-5     0.487222
    8.09609e-5      0.51994
     8.1388e-5     0.557039
    8.18171e-5     0.598927
    8.21031e-5     0.629814
    8.23912e-5     0.663614
    8.26813e-5     0.700878
    8.29714e-5     0.741742
    8.32614e-5     0.786658
    8.35536e-5     0.836554
    8.38477e-5     0.892212
    8.41419e-5     0.954122
    8.44361e-5      1.02327
    8.46578e-5      1.08087
    8.48815e-5      1.14447
    8.51053e-5      1.21429
     8.5329e-5      1.29116
    8.55528e-5      1.37609
    8.57765e-5      1.47027
    8.60034e-5      1.57668
    8.62303e-5      1.69585
    8.63816e-5      1.78344
    8.65329e-5      1.87842
    8.66841e-5      1.98166
    8.68354e-5      2.09417
    8.69867e-5       2.2171
    8.71409e-5      2.35452
    8.72951e-5      2.50585
    8.74493e-5      2.67325
    8.76036e-5      2.85927
    8.77578e-5      3.06688
    8.78987e-5      3.27848
     8.8033e-5      3.50275
    8.81672e-5      3.75277
    8.83015e-5      4.03301
     8.8391e-5      4.23929
    8.84805e-5      4.46342
    8.85879e-5      4.75926
    8.86818e-5      5.04584
    8.87758e-5      5.36258
    8.88698e-5      5.71465
    8.89638e-5      6.10857
    8.90488e-5      6.50797
    8.91159e-5       6.8575
     8.9183e-5      7.24258
    8.92502e-5      7.66952
    8.93173e-5      8.14643
    8.93844e-5      8.68403
    8.94435e-5      9.21875
    8.95025e-5      9.82528
    8.95419e-5      10.2787
    8.95813e-5        10.78
    8.96207e-5      11.3393
    8.96601e-5      11.9705
    8.96896e-5      12.5022
    8.97173e-5      13.0578
    8.97442e-5      13.6582
     8.9771e-5      14.3342
    8.97979e-5      15.1033
    8.98247e-5      15.9879
    8.98426e-5      16.6558
    8.98605e-5      17.3981
    8.98784e-5      18.2268
    8.98963e-5      19.1559
    8.99142e-5      20.2013
    8.99321e-5      21.3815
      8.995e-5       22.717
    8.99635e-5      23.8343
    8.99769e-5      25.0625
    8.99903e-5      26.4128
    9.00037e-5      27.8973
    9.00172e-5      29.5286
    9.00306e-5      31.3196
     9.0044e-5      33.2839
    9.00574e-5      35.4349
    9.00709e-5      37.7863
    9.00843e-5      40.3513
    9.00977e-5      43.1427
    9.01111e-5      46.1723
    9.01246e-5      49.4507
    9.01394e-5      53.3799
     9.0155e-5      57.8478
    9.01706e-5      62.6795
    9.01861e-5      67.8766
    9.02017e-5      73.4342
    9.02175e-5      79.4105
    9.02389e-5      88.0979
    9.02622e-5      98.1265
    9.02909e-5      111.148
    9.03553e-5      141.326
    9.03839e-5      154.044
    9.04054e-5      162.841
    9.04269e-5       170.75
    9.04484e-5      177.561
    9.04699e-5      183.088
    9.04842e-5      185.982
    9.05028e-5       188.73
     9.0523e-5      190.359
    9.05362e-5      190.647
    9.05558e-5      189.944
     9.0573e-5      188.239
    9.05944e-5      184.744
    9.06159e-5      179.855
    9.06374e-5      173.735
    9.06589e-5      166.582
    9.06847e-5      156.938
    9.07276e-5      139.325
    9.07777e-5       118.38
    9.08085e-5      106.272
    9.08271e-5      99.4508
    9.08447e-5      93.4407
    9.08612e-5      88.2031
    9.08776e-5      83.3801
    9.08941e-5      78.9849
    9.09122e-5       74.658
    9.09269e-5      71.5087
    9.09417e-5      68.6995
    9.09565e-5      66.2211
    9.09712e-5      64.0621
    9.09885e-5      61.9291
    9.10032e-5      60.4144
     9.1018e-5      59.1729
    9.10328e-5      58.1889
    9.10475e-5      57.4467
    9.10697e-5      56.7539
    9.10918e-5      56.5238
     9.1114e-5       56.714
    9.11361e-5      57.2887
    9.11583e-5      58.2187
    9.11804e-5      59.4822
    9.12026e-5      61.0646
    9.12302e-5      63.4746
    9.12559e-5       66.155
    9.12817e-5      69.2704
    9.13074e-5      72.8482
    9.13331e-5        76.93
    9.13589e-5       81.573
    9.13781e-5      85.4682
    9.13974e-5      89.7606
    9.14167e-5      94.4974
    9.14345e-5      99.3029
    9.14515e-5      104.349
    9.14685e-5      109.885
    9.14856e-5      115.971
    9.15026e-5      122.679
    9.15196e-5      130.089
    9.15366e-5      138.295
    9.15536e-5      147.404
    9.15706e-5      157.536
    9.15877e-5      168.828
    9.16047e-5      181.437
    9.16198e-5      193.889
    9.16349e-5      207.652
      9.165e-5      222.872
    9.16652e-5      239.708
    9.16803e-5      258.332
    9.16954e-5      278.925
    9.17105e-5      301.678
    9.17257e-5      326.793
    9.17415e-5      355.929
    9.17574e-5      388.137
    9.17733e-5      423.656
    9.17892e-5       462.72
    9.18051e-5      505.548
    9.18174e-5       541.59
    9.18315e-5      585.822
    9.18457e-5      633.393
    9.18598e-5      684.376
    9.18769e-5      750.924
     9.1892e-5      813.866
    9.19122e-5      903.818
    9.19324e-5      1000.34
    9.19576e-5      1129.32
    9.19878e-5      1294.03
    9.20685e-5      1752.22
    9.20987e-5       1913.7
    9.21189e-5      2012.59
    9.21391e-5      2101.99
    9.21593e-5       2179.9
    9.21794e-5      2244.51
    9.21956e-5      2285.57
    9.22137e-5       2319.6
    9.22339e-5      2341.53
    9.22493e-5      2346.68
    9.22661e-5      2340.69
    9.22863e-5      2317.73
    9.23044e-5      2282.82
    9.23206e-5      2241.04
    9.23407e-5      2175.63
    9.23609e-5      2097.04
    9.23811e-5       2007.1
    9.24012e-5      1907.81
    9.24315e-5      1746.01
    9.25122e-5      1288.27
    9.25424e-5      1124.04
    9.25676e-5      995.517
    9.25878e-5      899.373
     9.2608e-5      809.785
    9.26231e-5      747.103
    9.26402e-5      680.827
    9.26543e-5      630.049
    9.26685e-5      582.664
    9.26826e-5      538.598
    9.26949e-5      502.684
    9.27108e-5      459.996
    9.27267e-5      421.046
    9.27426e-5      385.616
    9.27585e-5      353.474
    9.27743e-5      324.382
    9.27876e-5      302.295
    9.28008e-5      282.022
     9.2814e-5       263.43
    9.28273e-5      246.388
    9.28405e-5      230.775
    9.28537e-5       216.47
     9.2867e-5      203.365
