#ZVView-data-copy:  31-Jul-2018 05:05:00
#=======================================
#
#name:   ENDF/B-VIII.0: XE-126(N,G)XE-127
#X.axis: Incident Energy
#Y.axis: Cross Section
#wdata:  2
#ldata:  1974
#data...
#            X            Y
          MeV        barns
         1e-11      174.978
   1.10304e-11      166.605
   1.21669e-11      158.633
   1.34206e-11      151.042
   1.48034e-11      143.814
   1.63287e-11      136.933
   1.80111e-11       130.38
   1.98669e-11      124.142
   2.19139e-11      118.201
   2.41719e-11      112.545
   2.66625e-11       107.16
   2.94097e-11      102.032
     3.244e-11        97.15
   3.57825e-11      92.5013
   3.94694e-11      88.0751
   4.35362e-11      83.8606
   4.80221e-11      79.8478
   5.29701e-11      76.0271
    5.8428e-11      72.3892
   6.44483e-11      68.9253
   7.10888e-11      65.6272
   7.84136e-11      62.4869
   8.64931e-11      59.4969
   9.54051e-11        56.65
   1.05235e-10      53.9393
   1.16078e-10      51.3583
   1.28039e-10      48.9008
   1.41231e-10      46.5609
   1.55784e-10       44.333
   1.71835e-10      42.2117
    1.8954e-10      40.1919
    2.0907e-10      38.2687
   2.30612e-10      36.4376
   2.54374e-10      34.6941
   2.80584e-10       33.034
   3.09494e-10      31.4534
   3.41383e-10      29.9484
   3.76558e-10      28.5154
   4.15358e-10       27.151
   4.58155e-10      25.8519
   5.05362e-10       24.615
   5.57433e-10      23.4373
   6.14869e-10      22.3159
   6.78223e-10      21.2482
   7.48105e-10      20.2315
   8.25188e-10      19.2636
   9.10213e-10      18.3419
      1.004e-9      17.4644
    1.10745e-9      16.6289
    1.22155e-9      15.8333
    1.34742e-9      15.0758
    1.48625e-9      14.3546
    1.63939e-9      13.6679
    1.80831e-9      13.0141
    1.99463e-9      12.3916
    2.20016e-9      11.7988
    2.42685e-9      11.2345
    2.67691e-9      10.6971
    2.95273e-9      10.1855
    3.25697e-9      9.69837
    3.59256e-9      9.23457
    3.96272e-9      8.79299
    4.37103e-9      8.37258
    4.82141e-9      7.97233
    5.31819e-9      7.59131
    5.86616e-9      7.22863
    6.47059e-9      6.88341
     7.1373e-9       6.5548
    7.87271e-9      6.24195
    8.68389e-9        5.944
    9.57865e-9      5.66017
    1.05656e-8      5.38978
    1.16543e-8      5.13226
    1.28551e-8      4.88714
    1.41796e-8      4.65392
    1.56406e-8      4.43198
    1.72522e-8      4.22067
    1.90298e-8      4.01936
    2.09906e-8      3.82763
    2.31534e-8      3.64521
    2.52419e-8      3.49194
       2.53e-8      3.48794
    2.79068e-8      3.32192
    3.07823e-8      3.16368
     3.3954e-8      3.01294
    3.74525e-8      2.86946
    4.13115e-8      2.73294
    4.55681e-8      2.60311
    5.02633e-8       2.4798
    5.54423e-8      2.36252
    6.11549e-8      2.25061
    6.74561e-8      2.14403
    7.44066e-8      2.04261
    8.20732e-8      1.94608
    9.05297e-8      1.85425
    9.98577e-8      1.76691
    1.10147e-7      1.68402
    1.22353e-7      1.59994
    1.35905e-7      1.51986
    1.49908e-7      1.44884
    1.65354e-7      1.38136
    1.82392e-7      1.31723
    2.01185e-7      1.25631
    2.21915e-7      1.19848
    2.46507e-7       1.1401
    2.71906e-7      1.08804
    2.99923e-7      1.03861
    3.33143e-7     0.988503
    3.70061e-7     0.941162
     4.1105e-7     0.896505
    4.53404e-7     0.857404
    5.03649e-7     0.817567
    5.55544e-7     0.782447
    6.12785e-7       0.7493
    6.80659e-7     0.715883
    7.56088e-7     0.684625
    8.39835e-7     0.655429
    9.26369e-7     0.630142
    1.03624e-6     0.603275
    1.14301e-6      0.58154
    1.26078e-6     0.561492
    1.40049e-6     0.541928
    1.55562e-6     0.524506
    1.72801e-6     0.509244
    1.97395e-6     0.493311
    2.17734e-6     0.484229
    2.40169e-6     0.477637
    2.63072e-6     0.474355
    2.78235e-6      0.47356
    3.04962e-6     0.475498
    3.31704e-6     0.480948
    3.55772e-6     0.488954
    3.81587e-6     0.500731
    4.03581e-6     0.513694
    4.26843e-6     0.530673
    4.51445e-6     0.552282
    4.74145e-6     0.576411
    4.94497e-6     0.601832
    5.15723e-6     0.632753
    5.34093e-6     0.663715
    5.53144e-6     0.700627
    5.68862e-6     0.735343
    5.85026e-6     0.775711
     6.0165e-6     0.822958
    6.14412e-6     0.863799
    6.27476e-6     0.910344
    6.40785e-6      0.96343
     6.5441e-6      1.02463
    6.68291e-6      1.09532
    6.77719e-6       1.1489
    6.87281e-6       1.2085
    6.96977e-6      1.27506
     7.0681e-6      1.34973
    7.16782e-6      1.43389
    7.26894e-6      1.52926
    7.34586e-6      1.60954
    7.42349e-6      1.69828
    7.50186e-6      1.79646
    7.58096e-6      1.90566
    7.66118e-6      2.02886
    7.74214e-6      2.16756
    7.82387e-6      2.32438
    7.87887e-6      2.44081
    7.93426e-6      2.56811
    7.99003e-6       2.7077
    8.04619e-6      2.86125
    8.10275e-6      3.03072
    8.15971e-6      3.21845
    8.21707e-6      3.42719
    8.27483e-6       3.6603
      8.333e-6      3.92179
    8.37683e-6      4.13911
    8.42107e-6      4.37855
    8.46531e-6      4.64071
    8.50996e-6      4.93133
    8.55483e-6      5.25303
    8.59969e-6      5.60871
    8.64519e-6       6.0096
    8.69069e-6      6.45768
     8.7364e-6      6.96317
    8.76716e-6      7.33908
    8.79792e-6      7.74761
    8.82868e-6      8.19266
    8.85965e-6      8.68231
    8.89085e-6      9.22287
    8.92204e-6      9.81745
    8.95323e-6      10.4735
    8.98465e-6      11.2054
    9.01628e-6      12.0255
       9.04e-6       12.703
    9.06373e-6      13.4412
    9.08745e-6      14.2477
     9.1114e-6      15.1399
    9.13546e-6      16.1257
    9.15952e-6      17.2138
    9.18358e-6      18.4188
    9.20764e-6      19.7586
    9.23168e-6      21.2528
    9.25567e-6      22.9248
    9.27167e-6      24.1547
    9.28766e-6       25.489
    9.30366e-6      26.9399
    9.31965e-6      28.5217
    9.33565e-6      30.2508
    9.35164e-6      32.1464
    9.36461e-6      33.8217
    9.37759e-6      35.6352
    9.39056e-6      37.6031
    9.40353e-6      39.7438
    9.41651e-6      42.0785
    9.42948e-6      44.6322
    9.44245e-6      47.4337
    9.45543e-6      50.5171
    9.46604e-6      53.2772
    9.47665e-6      56.2785
    9.48727e-6      59.5507
    9.49788e-6      63.1285
     9.5085e-6      67.0526
    9.51911e-6       71.371
    9.52973e-6      76.1405
    9.54034e-6      81.4293
     9.5486e-6      85.9537
    9.55685e-6       90.887
    9.56511e-6      96.2826
    9.57336e-6      102.203
    9.58162e-6      108.722
    9.58987e-6      115.927
    9.59813e-6       123.92
    9.60638e-6      132.826
    9.61346e-6      141.294
    9.62054e-6      150.648
    9.62761e-6      161.011
    9.63469e-6      172.528
    9.64177e-6      185.367
    9.64707e-6      195.978
    9.65238e-6      207.529
    9.65769e-6      220.121
      9.663e-6      233.861
    9.66866e-6      249.919
    9.67432e-6      267.574
    9.67998e-6      286.996
    9.68564e-6      308.363
     9.6913e-6      331.865
    9.69555e-6      351.011
    9.70026e-6      373.928
    9.70498e-6      398.689
     9.7097e-6      425.414
    9.71442e-6      454.219
    9.71913e-6      485.217
    9.72385e-6      518.515
    9.72857e-6      554.209
    9.73329e-6      592.384
      9.738e-6      633.108
    9.74272e-6      676.432
     9.7498e-6      746.344
    9.75687e-6      822.137
    9.76395e-6      903.628
    9.77103e-6      990.452
    9.78046e-6       1113.5
    9.79225e-6      1276.14
    9.81584e-6      1608.82
    9.82528e-6      1734.15
    9.83471e-6      1848.63
    9.84179e-6      1924.76
    9.84792e-6       1982.5
    9.85547e-6      2041.51
     9.8616e-6      2078.62
    9.86868e-6       2108.4
    9.87575e-6      2123.54
    9.87901e-6      2125.46
    9.88514e-6      2120.41
    9.89179e-6      2102.25
    9.89887e-6      2068.91
    9.90548e-6      2025.48
    9.91208e-6       1971.1
    9.91915e-6      1901.98
    9.92623e-6       1823.2
    9.93567e-6      1706.17
     9.9451e-6       1579.4
    9.97341e-6       1182.2
    9.98284e-6       1055.9
    9.98992e-6      965.933
    9.99699e-6      880.853
    1.00041e-5       801.16
    1.00111e-5      727.162
    1.00182e-5      658.992
    1.00229e-5      616.783
    1.00277e-5      577.126
    1.00324e-5      539.964
    1.00371e-5      505.225
    1.00418e-5      472.821
    1.00465e-5      442.655
    1.00512e-5       414.62
     1.0056e-5      388.605
    1.00607e-5      364.494
    1.00666e-5      336.857
    1.00719e-5      314.186
    1.00772e-5      293.436
    1.00825e-5      274.448
    1.00878e-5      257.077
     1.0093e-5      241.519
    1.00979e-5      227.871
    1.01029e-5      215.294
    1.01079e-5      203.698
    1.01145e-5      189.612
    1.01211e-5       176.93
    1.01277e-5      165.487
    1.01343e-5      155.137
    1.01409e-5      145.753
    1.01483e-5       136.21
    1.01524e-5      131.324
    1.01607e-5      122.338
    1.01689e-5       114.28
    1.01772e-5      107.027
    1.01855e-5      100.471
    1.01937e-5       94.524
     1.0202e-5      89.1105
    1.02102e-5      84.1665
    1.02197e-5      79.0211
    1.02291e-5      74.3488
    1.02385e-5      70.0912
     1.0248e-5      66.1994
    1.02574e-5      62.6311
    1.02668e-5      59.3507
    1.02763e-5       56.327
    1.02857e-5      53.5335
    1.02975e-5      50.3298
    1.03093e-5      47.4103
    1.03211e-5      44.7416
    1.03329e-5      42.2955
    1.03447e-5      40.0473
    1.03565e-5      37.9759
    1.03683e-5      36.0631
    1.03801e-5      34.2927
    1.03942e-5      32.3367
    1.04084e-5      30.5448
    1.04225e-5      28.8988
    1.04367e-5      27.3831
    1.04508e-5      25.9842
     1.0472e-5      24.0793
    1.04933e-5      22.3772
     1.0511e-5      21.0933
    1.05287e-5      19.9171
    1.05463e-5      18.8369
     1.0564e-5      17.8424
    1.05817e-5      16.9246
    1.06083e-5      15.6753
    1.06348e-5      14.5592
    1.06629e-5      13.5011
    1.06911e-5      12.5541
    1.07192e-5      11.7032
    1.07473e-5      10.9358
    1.07755e-5      10.2413
    1.08039e-5      9.60521
    1.08324e-5      9.02386
    1.08609e-5      8.49361
    1.08894e-5      8.00864
     1.0918e-5      7.56395
    1.09466e-5      7.15334
    1.09756e-5       6.7718
    1.10141e-5      6.30867
    1.10527e-5      5.89136
    1.10913e-5      5.51407
    1.11304e-5      5.16734
    1.11695e-5       4.8524
    1.12087e-5      4.56547
    1.12478e-5       4.3032
    1.12874e-5      4.05948
    1.13271e-5      3.83571
    1.13668e-5      3.62983
    1.14065e-5      3.44004
    1.14467e-5      3.26236
     1.1507e-5      3.02056
    1.15674e-5      2.80468
    1.16286e-5      2.60857
    1.16898e-5      2.43237
    1.17513e-5      2.27275
    1.18133e-5      2.12711
    1.18754e-5      1.99508
     1.1938e-5      1.87395
     1.2001e-5       1.7631
    1.20639e-5      1.66186
    1.21277e-5      1.56792
    1.21916e-5      1.48179
    1.22341e-5      1.42829
    1.23204e-5      1.32842
    1.24067e-5      1.23881
    1.24942e-5      1.15715
    1.25817e-5      1.08352
    1.26705e-5       1.0158
    1.27593e-5      0.95428
    1.28493e-5     0.897546
    1.29393e-5     0.845846
    1.30305e-5     0.797968
    1.31218e-5      0.75416
    1.32144e-5     0.713432
    1.33069e-5     0.676028
    1.34008e-5     0.641131
    1.34947e-5     0.608973
    1.35899e-5     0.578875
    1.37333e-5     0.537746
    1.38781e-5     0.500731
     1.4025e-5     0.467165
    1.41732e-5     0.436787
    1.43228e-5     0.409216
    1.44738e-5     0.384128
     1.4627e-5     0.361139
    1.47816e-5     0.340126
    1.49376e-5     0.320876
    1.50951e-5     0.303204
    1.52548e-5     0.286881
    1.54161e-5     0.271914
    1.55241e-5     0.262568
    1.57431e-5     0.245169
    1.59652e-5     0.229438
    1.61904e-5     0.215207
    1.64188e-5     0.202234
    1.66505e-5     0.190406
    1.68854e-5     0.179599
    1.71236e-5     0.169703
    1.73652e-5      0.16062
    1.76102e-5     0.152266
    1.78586e-5     0.144567
    1.81106e-5     0.137458
    1.83661e-5     0.130882
    1.86252e-5     0.124789
     1.8888e-5     0.119133
    1.92896e-5      0.11137
    1.96987e-5     0.104401
    2.01176e-5    0.0980984
    2.05443e-5    0.0924301
    2.09811e-5    0.0872312
    2.14261e-5    0.0825007
    2.18817e-5    0.0781637
    2.23459e-5    0.0741956
     2.2821e-5     0.070538
    2.34694e-5    0.0661114
    2.39673e-5    0.0630858
    2.44768e-5    0.0602725
    2.51724e-5    0.0568233
    2.58877e-5    0.0536942
    2.66233e-5     0.050827
    2.73798e-5     0.048198
    2.81578e-5    0.0458057
    2.89579e-5    0.0435602
    2.97808e-5    0.0414832
    3.08415e-5     0.039108
    3.17179e-5    0.0373429
    3.26192e-5    0.0356939
    3.37827e-5      0.03378
     3.4986e-5    0.0320013
     3.6234e-5    0.0303548
    3.75246e-5     0.028823
    3.91353e-5    0.0271143
    4.05313e-5    0.0258068
     4.1683e-5    0.0247897
    4.34722e-5    0.0233737
    4.53382e-5    0.0220561
    4.72843e-5    0.0208265
    4.89686e-5    0.0198588
    5.10705e-5    0.0187695
    5.28922e-5    0.0179095
    5.51626e-5    0.0169362
    5.75304e-5    0.0160166
    6.04202e-5    0.0150195
    6.30137e-5    0.0142129
    6.57185e-5    0.0134586
    6.85394e-5    0.0127435
    7.09842e-5    0.0121866
    7.45498e-5    0.0114443
    7.77498e-5    0.0108517
    8.10871e-5    0.0102943
    8.45678e-5   0.00976968
      8.882e-5    0.0091998
    9.32814e-5   0.00867414
    9.72854e-5   0.00826279
    0.00010005   0.00799635
   0.000105081   0.00757019
   0.000109591   0.00723662
   0.000113495   0.00698084
   0.000118366   0.00669689
   0.000124318   0.00640488
   0.000129654   0.00618637
   0.000135186   0.00600209
   0.000140955   0.00585056
   0.000147005   0.00573518
   0.000152241   0.00567062
   0.000157672   0.00564112
   0.000158857   0.00563913
   0.000163454   0.00565401
   0.000168782   0.00571003
   0.000173578   0.00580089
    0.00017705   0.00589589
   0.000180814   0.00603234
   0.000183365   0.00614437
   0.000187255   0.00635819
   0.000189897    0.0065352
   0.000191906   0.00668918
   0.000193934    0.0068667
    0.00019667   0.00714111
   0.000199254   0.00744868
   0.000201168   0.00771419
   0.000203289   0.00804829
   0.000205165   0.00838514
   0.000207242   0.00881339
    0.00020942   0.00933834
   0.000210873   0.00973912
   0.000212658    0.0102991
   0.000213716     0.010672
   0.000215224    0.0112643
   0.000216354    0.0117623
   0.000217433    0.0122903
   0.000218134    0.0126557
   0.000219537    0.0134774
   0.000220728    0.0142674
   0.000221621    0.0149284
   0.000222514    0.0156622
   0.000223407     0.016457
     0.0002243     0.017345
   0.000225245    0.0183995
    0.00022619    0.0195782
   0.000227135    0.0209022
   0.000227765    0.0218791
   0.000228395    0.0229485
   0.000229025    0.0241196
   0.000229617    0.0253259
   0.000230172    0.0265514
   0.000230726    0.0278873
    0.00023128    0.0293469
    0.00023186    0.0310214
   0.000232465    0.0329527
    0.00023307    0.0350999
   0.000233674    0.0374918
   0.000234128    0.0394731
   0.000234582    0.0416415
   0.000235035    0.0440186
   0.000235489    0.0466335
   0.000235942    0.0495102
   0.000236396    0.0526754
   0.000236821    0.0559549
   0.000237247    0.0595906
   0.000237672    0.0636266
   0.000238097    0.0681219
   0.000238522    0.0731514
   0.000238947     0.078806
   0.000239231    0.0829643
   0.000239514    0.0874764
   0.000239798    0.0923959
   0.000240081    0.0977709
   0.000240365     0.103654
   0.000240649     0.110112
   0.000240932     0.117223
   0.000241239     0.125771
   0.000241546      0.13533
   0.000241751     0.142343
   0.000241956     0.149931
   0.000242161      0.15816
   0.000242365     0.167109
    0.00024257     0.176873
   0.000242806     0.189287
   0.000243042     0.203103
   0.000243279     0.218537
   0.000243515     0.235851
   0.000243673     0.248595
    0.00024383     0.262426
   0.000244043     0.283054
   0.000244184     0.298221
   0.000244326     0.314668
   0.000244468     0.332545
    0.00024461     0.352024
   0.000244751     0.373302
   0.000244893     0.396611
   0.000245019     0.419251
   0.000245184     0.452092
   0.000245295     0.476218
   0.000245405     0.502365
   0.000245515     0.530765
   0.000245626     0.561683
   0.000245736     0.595429
   0.000245846     0.632358
   0.000245976     0.680546
   0.000246106     0.734565
   0.000246193     0.774303
   0.000246279     0.817424
   0.000246366      0.86433
   0.000246452     0.915483
   0.000246539      0.97142
   0.000246645      1.04754
   0.000246716      1.10348
   0.000246787      1.16414
   0.000246858      1.23006
   0.000246929      1.30189
      0.000247      1.38036
   0.000247071      1.46634
   0.000247138      1.55536
   0.000247201      1.64698
   0.000247263      1.74721
   0.000247327      1.85717
   0.000247389      1.97824
   0.000247452      2.11201
   0.000247516      2.26041
   0.000247579      2.42576
   0.000247634      2.58657
   0.000247681      2.73823
   0.000247728      2.90447
   0.000247775      3.08741
   0.000247823      3.28961
    0.00024787      3.51423
   0.000247917      3.76524
   0.000247953       3.9738
   0.000247988      4.20268
   0.000248023      4.45522
   0.000248059      4.73549
   0.000248094      5.04869
   0.000248121      5.30907
   0.000248147      5.59502
   0.000248174      5.91062
   0.000248201       6.2608
   0.000248227      6.65151
   0.000248254      7.08986
   0.000248278      7.54566
   0.000248299      7.97166
    0.00024832      8.44296
    0.00024834      8.96594
   0.000248361      9.54793
   0.000248382      10.1972
   0.000248402      10.9234
   0.000248423      11.7372
   0.000248444      12.6505
   0.000248458      13.3214
   0.000248471       14.047
   0.000248485       14.832
   0.000248501      15.8404
   0.000248515      16.7902
   0.000248529      17.8196
   0.000248543      18.9353
   0.000248557      20.1441
   0.000248572      21.4773
   0.000248586      22.9747
   0.000248601      24.6018
   0.000248613      26.0519
   0.000248628      27.9158
   0.000248645      30.3059
   0.000248661      32.7076
   0.000248679      35.6609
   0.000248694      38.4515
   0.000248709      41.4708
   0.000248725      44.8199
   0.000248741      48.4392
   0.000248757      52.3442
   0.000248772      56.5493
   0.000248787      60.8357
   0.000248802      65.4179
   0.000248817      70.3077
   0.000248832      75.5151
   0.000248848      81.3514
   0.000248864      87.5605
   0.000248879      94.1514
   0.000248895       101.13
   0.000248919      112.337
   0.000248942      124.434
   0.000248966      137.413
    0.00024899      151.252
   0.000249013      165.915
   0.000249045      186.647
   0.000249084      214.194
   0.000249131      248.989
    0.00024921      308.205
   0.000249251      337.352
   0.000249288      362.821
   0.000249326      385.665
   0.000249351      399.055
   0.000249377      410.728
   0.000249402      420.497
   0.000249427      428.203
   0.000249452       433.72
   0.000249479      437.055
     0.0002495      437.868
   0.000249526      436.589
   0.000249555      432.116
   0.000249586      424.338
    0.00024961      416.002
   0.000249636      404.707
   0.000249666      389.376
   0.000249699      370.241
   0.000249736      345.954
    0.00024978       315.06
   0.000249897      227.463
    0.00024993      203.671
   0.000249962      181.504
   0.000249991      163.097
   0.000250019      145.809
    0.00025004       133.63
   0.000250062      121.741
   0.000250086      109.858
    0.00025011        98.86
   0.000250125      92.0173
   0.000250141      85.5596
   0.000250157      79.4798
   0.000250173       73.769
    0.00025019      67.8361
   0.000250209      61.7968
   0.000250224      57.5931
   0.000250238      53.6572
