#ZVView-data-copy:  30-Jan-2019 14:35:23
#=======================================
#
#name:   ENDF/B-VIII.0: XE-134(N,G)XE-135
#X.axis: Incident Energy
#Y.axis: Cross Section
#wdata:  2
#ldata:  2833
#data...
#            X            Y
#          MeV        barns
         1e-11      13.3264
   1.10304e-11      12.6887
   1.21669e-11      12.0816
   1.34206e-11      11.5034
   1.48034e-11       10.953
   1.63287e-11      10.4289
   1.80111e-11      9.92986
   1.98669e-11       9.4547
   2.19139e-11      9.00229
   2.41719e-11      8.57152
   2.66625e-11      8.16136
   2.94097e-11      7.77083
     3.244e-11      7.39899
   3.57825e-11      7.04494
   3.94694e-11      6.70784
   4.35362e-11      6.38686
   4.80221e-11      6.08124
   5.29701e-11      5.79025
    5.8428e-11      5.51318
   6.44483e-11      5.24937
   7.10888e-11      4.99818
   7.84136e-11      4.75901
   8.64931e-11      4.53129
   9.54051e-11      4.31446
   1.05235e-10      4.10801
   1.16078e-10      3.91144
   1.28039e-10      3.72427
   1.41231e-10      3.54606
   1.55784e-10      3.37638
   1.71835e-10      3.21481
    1.8954e-10      3.06098
    2.0907e-10      2.91451
   2.30612e-10      2.77505
   2.54374e-10      2.64226
   2.80584e-10      2.51582
   3.09494e-10      2.39544
   3.41383e-10      2.28081
   3.76558e-10      2.17167
   4.15358e-10      2.06775
   4.58155e-10      1.96881
   5.05362e-10       1.8746
   5.57433e-10      1.78489
   6.14869e-10      1.69948
   6.78223e-10      1.61816
   7.48105e-10      1.54073
   8.25188e-10        1.467
   9.10213e-10       1.3968
      1.004e-9      1.32996
    1.10745e-9      1.26632
    1.22155e-9      1.20572
    1.34742e-9      1.14802
    1.48625e-9      1.09308
    1.63939e-9      1.04078
    1.80831e-9     0.990971
    1.99463e-9     0.943549
    2.20016e-9     0.898396
    2.42685e-9     0.855403
    2.67691e-9     0.814467
    2.95273e-9      0.77549
    3.25697e-9     0.738378
    3.59256e-9     0.703042
    3.96272e-9     0.669397
    4.37103e-9     0.637364
    4.82141e-9     0.606866
    5.31819e-9     0.577832
    5.86616e-9     0.550194
    6.47059e-9     0.523887
     7.1373e-9     0.498843
    7.87271e-9     0.474998
    8.68389e-9     0.452286
    9.57865e-9     0.430646
    1.05656e-8     0.410027
    1.16543e-8     0.390389
    1.28551e-8     0.371696
    1.41796e-8     0.353907
    1.56406e-8     0.336977
    1.72522e-8     0.320856
    1.90298e-8     0.305492
    2.09906e-8     0.290853
    2.31534e-8     0.276914
    2.52419e-8     0.265195
       2.53e-8      0.26489
    2.79068e-8     0.252197
    3.07823e-8     0.240111
     3.3954e-8     0.228615
    3.74525e-8     0.217686
    4.13115e-8      0.20727
    4.55681e-8     0.197328
    5.02633e-8     0.187853
    5.54423e-8     0.178834
    6.11549e-8     0.170248
    6.74561e-8     0.162085
    7.44066e-8     0.154338
    8.26521e-8     0.146424
    9.11684e-8     0.139381
    1.00562e-7     0.132676
    1.10924e-7     0.126292
    1.22353e-7     0.120215
     1.3496e-7     0.114429
    1.48866e-7     0.108936
    1.65354e-7     0.103351
    1.82392e-7    0.0983638
    2.01185e-7    0.0936141
    2.21915e-7    0.0890917
     2.4478e-7    0.0847853
    2.70002e-7     0.080684
    2.97822e-7    0.0767811
    3.30826e-7    0.0728296
    3.64913e-7    0.0692901
    4.02512e-7    0.0659188
    4.43986e-7    0.0627091
    4.89733e-7    0.0596511
    5.40194e-7    0.0567372
     5.9168e-7    0.0541636
    6.61852e-7    0.0511485
    7.35197e-7    0.0484584
     8.1095e-7    0.0460694
    8.94508e-7    0.0437876
    9.86675e-7    0.0416139
    1.08834e-6    0.0395415
    1.20048e-6    0.0375655
     1.3149e-6    0.0358251
    1.45038e-6    0.0340201
    1.58869e-6    0.0324165
    1.72801e-6     0.030996
    1.89271e-6    0.0295167
    2.08772e-6     0.027997
    2.30284e-6     0.026543
    2.54012e-6    0.0251574
    2.84137e-6    0.0236525
    3.11233e-6    0.0224819
    3.38526e-6    0.0214437
    3.68212e-6    0.0204442
    4.03306e-6    0.0193989
    4.41767e-6     0.018401
    4.83872e-6     0.017439
    5.22643e-6    0.0166679
    5.68474e-6    0.0158398
    6.18325e-6    0.0150448
    6.72547e-6    0.0142806
    7.26399e-6     0.013604
    7.84603e-6    0.0129494
    8.47428e-6    0.0123152
    9.28242e-6     0.011594
    1.00964e-5    0.0109519
    1.09818e-5    0.0103361
    1.22842e-5    0.0095502
    1.33614e-5   0.00898552
    1.44313e-5   0.00848622
    1.54784e-5    0.0080469
    1.64861e-5   0.00766317
    1.75584e-5    0.0072914
    1.87015e-5   0.00693043
    2.00585e-5     0.006541
    2.16646e-5   0.00613051
    2.32366e-5   0.00576901
    2.49226e-5     0.005423
     2.6545e-5   0.00512264
    2.84711e-5   0.00479939
     3.0537e-5   0.00448992
    3.27527e-5   0.00419371
    3.48832e-5    0.0039375
    3.68938e-5   0.00371786
    3.90203e-5   0.00350646
    4.09823e-5   0.00332762
    4.30409e-5   0.00315516
     4.5205e-5   0.00298862
    4.74757e-5   0.00282815
    4.98628e-5   0.00267319
    5.27368e-5   0.00250298
    5.57765e-5   0.00234146
    5.89913e-5   0.00218652
    6.19545e-5   0.00205751
    6.55254e-5   0.00191656
    6.88201e-5   0.00179866
    7.22769e-5   0.00168678
    7.69821e-5   0.00155028
    8.14192e-5   0.00143644
    8.55089e-5   0.00134191
    8.98084e-5   0.00125228
    9.36634e-5   0.00117905
    9.76838e-5   0.00110933
   0.000101868   0.00104315
    0.00010624  0.000980096
   0.000110024   0.00092985
   0.000113949   0.00088172
   0.000118008  0.000835788
   0.000122087  0.000793142
   0.000126436  0.000751227
   0.000130946  0.000711183
    0.00013561  0.000673042
   0.000141297  0.000630409
   0.000147362  0.000589727
   0.000153554  0.000551952
   0.000159818  0.000517784
   0.000166227  0.000486018
   0.000172786  0.000456841
    0.00017895  0.000432032
   0.000185324  0.000408751
   0.000192595  0.000385001
   0.000199393  0.000365149
   0.000206077  0.000347645
   0.000214157  0.000329127
   0.000221796  0.000314095
   0.000227874  0.000303842
   0.000234349  0.000294458
   0.000240081  0.000287748
   0.000246903   0.00028158
    0.00025214  0.000278552
   0.000256355  0.000277221
     0.0002586  0.000276872
   0.000262248  0.000277261
   0.000265948  0.000278783
     0.0002697  0.000281658
   0.000273505  0.000286203
    0.00027669  0.000291282
   0.000279618  0.000297622
   0.000282573  0.000305623
   0.000285556  0.000315892
   0.000287563  0.000324181
   0.000289585   0.00033389
    0.00029162  0.000345276
   0.000292638   0.00035155
   0.000294702  0.000366108
   0.000296767  0.000383154
   0.000298587  0.000400703
   0.000300408  0.000421167
   0.000302317   0.00044612
   0.000303724  0.000467432
   0.000305265  0.000494097
   0.000306392  0.000516103
   0.000307459  0.000539348
   0.000308882  0.000574463
   0.000310123  0.000609456
   0.000311363  0.000649457
   0.000312519  0.000691999
   0.000313503  0.000732813
   0.000314488  0.000778737
   0.000315479  0.000831173
   0.000316142  0.000870189
   0.000316806  0.000912775
   0.000317469  0.000959398
   0.000318229   0.00101862
   0.000318988   0.00108439
   0.000319558   0.00113906
   0.000320318   0.00121989
   0.000320859   0.00128356
   0.000321385   0.00135134
   0.000321911   0.00142556
   0.000322437   0.00150707
   0.000322963   0.00159671
   0.000323473   0.00169231
    0.00032395   0.00179077
   0.000324426   0.00189931
   0.000324903   0.00201893
    0.00032538   0.00215101
   0.000325857   0.00229807
   0.000326361   0.00247248
   0.000326698   0.00260074
   0.000327034   0.00273997
   0.000327371   0.00289153
   0.000327707   0.00305689
   0.000328043   0.00323775
    0.00032838   0.00343607
   0.000328679   0.00362866
   0.000329071   0.00390805
   0.000329332   0.00411373
   0.000329593   0.00433709
   0.000329854   0.00458004
   0.000330116   0.00484463
   0.000330377    0.0051334
   0.000330638   0.00544974
    0.00033094   0.00585419
   0.000331241    0.0063073
   0.000331442   0.00664027
   0.000331643   0.00700119
   0.000331844    0.0073933
   0.000332045   0.00782026
   0.000332246   0.00828622
   0.000332488   0.00890368
   0.000332729   0.00959448
    0.00033289    0.0101018
    0.00033305    0.0106515
   0.000333211    0.0112484
   0.000333372     0.011898
   0.000333533    0.0126067
   0.000333729    0.0135611
   0.000333925    0.0146301
   0.000334055    0.0154155
   0.000334186     0.016267
   0.000334317    0.0171923
   0.000334447    0.0182003
   0.000334578    0.0193016
   0.000334729    0.0207038
    0.00033488     0.022268
    0.00033503    0.0240201
   0.000335131    0.0253079
   0.000335231    0.0267042
   0.000335332    0.0282215
   0.000335427    0.0297883
   0.000335518    0.0313987
   0.000335608    0.0331459
   0.000335699    0.0350462
   0.000335789    0.0371183
   0.000335879    0.0393838
    0.00033597    0.0418681
    0.00033606    0.0446008
   0.000336141    0.0472666
   0.000336211    0.0498052
   0.000336281    0.0525595
   0.000336352    0.0555552
   0.000336422    0.0588222
   0.000336493    0.0623954
   0.000336563    0.0663157
   0.000336633    0.0706314
   0.000336696    0.0748652
   0.000336751    0.0789278
   0.000336807    0.0833459
   0.000336862    0.0881646
   0.000336917    0.0934375
   0.000336972    0.0992279
   0.000337028     0.105613
   0.000337083     0.112686
   0.000337133     0.119812
   0.000337178     0.126886
   0.000337224     0.134693
   0.000337269     0.143363
   0.000337314     0.153067
   0.000337348     0.161157
   0.000337382     0.170076
   0.000337416     0.179978
    0.00033745     0.191059
   0.000337481     0.202584
   0.000337508     0.213388
   0.000337534     0.225407
    0.00033756     0.238858
   0.000337587     0.254002
   0.000337613      0.27115
   0.000337631      0.28388
   0.000337648     0.297796
   0.000337666     0.313041
   0.000337683     0.329779
   0.000337701     0.348191
   0.000337719      0.36848
   0.000337736     0.390873
   0.000337754      0.41562
   0.000337769      0.43892
   0.000337784     0.464347
   0.000337799     0.492113
   0.000337814     0.522444
   0.000337829     0.555591
   0.000337844     0.591819
   0.000337859     0.631419
   0.000337874     0.674697
   0.000337889     0.721996
   0.000337905     0.773665
    0.00033792      0.83009
   0.000337935     0.891672
    0.00033795     0.958854
   0.000337965      1.03208
    0.00033798      1.11185
   0.000337995      1.19865
   0.000338008      1.27676
    0.00033802      1.36044
   0.000338033      1.45005
   0.000338045       1.5459
   0.000338058      1.64838
    0.00033807      1.75783
   0.000338083      1.87463
   0.000338096      1.99915
   0.000338108       2.1318
   0.000338127      2.34683
   0.000338146      2.58232
   0.000338165      2.83964
   0.000338183      3.12009
   0.000338201      3.40389
   0.000338216      3.66489
   0.000338231      3.94295
   0.000338251      4.34121
   0.000338266      4.66126
   0.000338286      5.11744
   0.000338307      5.60821
   0.000338327      6.13438
   0.000338347      6.69653
   0.000338372      7.45032
   0.000338395      8.17724
   0.000338417      8.94941
    0.00033844      9.76577
    0.00033847      10.9195
   0.000338504      12.2889
   0.000338543       13.975
   0.000338602      16.6583
   0.000338694      20.9055
   0.000338741      22.9125
   0.000338783      24.5928
   0.000338821      25.9525
   0.000338854      26.9269
   0.000338886      27.7351
   0.000338918      28.3594
   0.000338949      28.7698
   0.000338978      28.9902
      0.000339      29.0369
   0.000339029      28.9507
   0.000339058      28.6891
   0.000339088      28.2357
   0.000339113       27.753
   0.000339142      27.0378
   0.000339177      25.9666
    0.00033921      24.8266
   0.000339249      23.2981
   0.000339297      21.2329
   0.000339368      18.0235
   0.000339434       14.981
    0.00033947      13.3808
   0.000339505      11.9144
   0.000339535      10.7053
   0.000339565      9.56631
   0.000339588      8.76159
   0.000339612      7.96029
   0.000339638      7.13357
   0.000339656      6.61711
   0.000339673      6.12838
   0.000339691       5.6671
   0.000339709      5.23295
   0.000339726      4.82534
   0.000339744      4.44367
   0.000339761      4.09941
   0.000339778      3.77782
   0.000339795      3.47804
   0.000339812      3.19919
   0.000339828      2.94036
   0.000339845       2.7006
   0.000339862      2.47895
   0.000339879      2.27446
   0.000339896      2.08611
   0.000339913      1.91298
   0.000339925      1.80554
    0.00033994      1.67164
   0.000339955      1.54787
    0.00033997       1.4336
   0.000339985      1.32822
       0.00034      1.23114
   0.000340015      1.14182
    0.00034003      1.05969
   0.000340045     0.984261
    0.00034006     0.915023
   0.000340075     0.851525
    0.00034009     0.793323
   0.000340106     0.740009
   0.000340121     0.691186
   0.000340136     0.646497
   0.000340151     0.605598
   0.000340166     0.568174
   0.000340183     0.528506
   0.000340201     0.492735
   0.000340219     0.460462
   0.000340236     0.431331
   0.000340254     0.405012
   0.000340271     0.381212
   0.000340289     0.359662
   0.000340306     0.340124
   0.000340324     0.322378
   0.000340342     0.306233
   0.000340359     0.291515
   0.000340377     0.278069
   0.000340403     0.259988
    0.00034043     0.244059
   0.000340447     0.234468
    0.00034047     0.223182
   0.000340492      0.21293
   0.000340526     0.199197
    0.00034056     0.187115
   0.000340594     0.176387
   0.000340628     0.166782
   0.000340662     0.158115
   0.000340696     0.150243
   0.000340741     0.140786
   0.000340786     0.132325
   0.000340837     0.123895
   0.000340892     0.115612
   0.000340947       0.1082
   0.000341002     0.101526
   0.000341058    0.0954878
   0.000341113    0.0899998
   0.000341168     0.084993
   0.000341224    0.0804098
   0.000341286    0.0756542
   0.000341357    0.0708286
   0.000341427    0.0664643
   0.000341497    0.0625023
   0.000341568    0.0588933
   0.000341638    0.0555954
   0.000341708     0.052573
   0.000341779    0.0497956
   0.000341854    0.0470618
   0.000341935    0.0443911
   0.000342015    0.0419454
   0.000342095    0.0396997
   0.000342176    0.0376325
   0.000342256    0.0357251
   0.000342377    0.0331287
   0.000342457    0.0315541
   0.000342558    0.0297409
   0.000342658    0.0280817
   0.000342759    0.0265593
   0.000342859    0.0251592
    0.00034296    0.0238683
    0.00034311     0.022113
   0.000343261    0.0205469
   0.000343392    0.0193219
   0.000343522    0.0182045
   0.000343653    0.0171822
   0.000343784    0.0162442
   0.000343914    0.0153816
   0.000344045    0.0145864
   0.000344176    0.0138518
   0.000344306    0.0131719
   0.000344457    0.0124484
   0.000344608    0.0117835
   0.000344759    0.0111711
   0.000344909    0.0106057
   0.000345136   0.00983585
   0.000345362   0.00914797
   0.000345512   0.00872926
   0.000345703   0.00823935
   0.000345894   0.00778994
   0.000346085   0.00737671
   0.000346276   0.00699595
   0.000346467   0.00664441
   0.000346754    0.0061656
    0.00034704   0.00573759
   0.000347301   0.00538553
   0.000347563   0.00506556
   0.000347824   0.00477388
   0.000348085   0.00450727
   0.000348346   0.00426297
   0.000348608   0.00403851
   0.000348869   0.00383159
    0.00034913   0.00364035
   0.000349472   0.00341156
   0.000349814   0.00320433
   0.000350155   0.00301603
   0.000350497   0.00284447
   0.000350839   0.00268787
   0.000351181   0.00254447
   0.000351522   0.00241252
   0.000351864   0.00229074
   0.000352216   0.00217511
   0.000352743   0.00201815
   0.000353271   0.00187838
   0.000353799   0.00175335
   0.000354326   0.00164106
   0.000354865   0.00153776
   0.000355427   0.00144078
   0.000355988   0.00135331
    0.00035655   0.00127422
   0.000357111   0.00120241
   0.000357673   0.00113687
   0.000358354   0.00106488
   0.000359036   0.00100015
   0.000359717  0.000941651
   0.000360398  0.000888614
    0.00036114  0.000836406
   0.000361882  0.000789193
   0.000362624  0.000746349
   0.000363365  0.000707357
   0.000364403  0.000658514
   0.000365441  0.000615161
   0.000366547  0.000574242
   0.000367374  0.000546715
   0.000368614   0.00050958
   0.000369857  0.000476755
   0.000371105  0.000447661
   0.000372352  0.000421572
   0.000373572  0.000398599
   0.000374778   0.00037824
   0.000375984  0.000359864
   0.000377592  0.000337917
     0.0003792  0.000318391
   0.000380707  0.000302048
   0.000382215  0.000287364
   0.000383723  0.000274224
    0.00038523  0.000262127
    0.00038724  0.000247714
    0.00038925   0.00023492
    0.00039126  0.000223501
    0.00039327  0.000213259
    0.00039528  0.000204027
    0.00039729  0.000195671
     0.0003993  0.000188076
   0.000402315  0.000177931
    0.00040533   0.00016897
   0.000408345  0.000161083
   0.000410794  0.000155297
   0.000415125  0.000146272
     0.0004194  0.000138548
   0.000423615  0.000131923
    0.00042783  0.000126037
    0.00043064  0.000122503
    0.00043626  0.000116164
    0.00044188  0.000110639
     0.0004475  0.000105779
    0.00045312  0.000101467
    0.00045874   9.76123e-5
    0.00046436   9.41425e-5
   0.000472789    8.9564e-5
   0.000481219   8.55298e-5
   0.000489649   8.20236e-5
   0.000498079   7.88905e-5
   0.000509319   7.52592e-5
   0.000520559   7.21263e-5
   0.000531799   6.94139e-5
   0.000543039   6.70625e-5
   0.000554278   6.50272e-5
   0.000565518    6.3274e-5
   0.000581588    6.1232e-5
   0.000592146   6.01311e-5
   0.000604706   5.90648e-5
   0.000617563   5.82476e-5
   0.000630663   5.77083e-5
   0.000644072    5.7432e-5
   0.000651243   5.74032e-5
   0.000664245   5.76004e-5
   0.000677246    5.8074e-5
   0.000690247   5.89049e-5
   0.000703249   6.00634e-5
   0.000711916   6.10671e-5
   0.000720584   6.22654e-5
   0.000729251    6.3677e-5
   0.000737919   6.53245e-5
   0.000746587   6.72347e-5
   0.000755254   6.94394e-5
   0.000763922   7.19768e-5
   0.000772589   7.48929e-5
   0.000781257   7.82431e-5
   0.000789924   8.20948e-5
   0.000798592   8.65255e-5
   0.000805093   9.03046e-5
   0.000811593   9.44952e-5
   0.000818094   9.92158e-5
   0.000824595  0.000104469
   0.000831095  0.000110421
   0.000837596  0.000117084
    0.00084193  0.000122025
   0.000846264  0.000127404
   0.000850597   0.00013327
   0.000854931  0.000139683
   0.000859265  0.000146707
   0.000863599  0.000154422
   0.000867932  0.000162918
   0.000872266  0.000172301
     0.0008766  0.000182687
    0.00088125  0.000195159
    0.00088435  0.000204308
    0.00088745  0.000214223
    0.00089055  0.000224992
    0.00089365  0.000236714
    0.00089675  0.000249504
    0.00089985  0.000263496
    0.00090295  0.000278842
    0.00090605  0.000295724
     0.0009076  0.000304713
     0.0009107  0.000324291
     0.0009138  0.000346001
     0.0009169  0.000370165
       0.00092  0.000397098
   0.000922325  0.000419416
    0.00092465  0.000443862
   0.000926975  0.000470666
     0.0009293  0.000500113
   0.000931625  0.000532595
    0.00093395  0.000568507
   0.000936275  0.000608392
     0.0009386  0.000652778
    0.00094046  0.000692046
    0.00094232  0.000735152
    0.00094418  0.000782583
    0.00094604  0.000834929
     0.0009479  0.000892891
   0.000949803  0.000958784
   0.000951727   0.00103349
   0.000953009   0.00108853
   0.000954288    0.0011479
   0.000955564   0.00121219
    0.00095684   0.00128216
   0.000958115   0.00135842
   0.000959382   0.00144133
    0.00096064   0.00153159
   0.000961898   0.00163066
   0.000963156   0.00173965
   0.000964356   0.00185474
     0.0009655   0.00197554
   0.000966644   0.00210874
   0.000967788   0.00225613
   0.000968679   0.00238211
   0.000969634   0.00252945
    0.00097059   0.00269096
   0.000971545   0.00286871
   0.000972501   0.00306491
   0.000973456   0.00328187
   0.000974361   0.00350942
   0.000975265    0.0037621
    0.00097617   0.00404348
   0.000977074   0.00435793
