#ZVView-data-copy:  31-Jul-2018 16:19:47
#=======================================
#
#name:   ENDF/B-VIII.0: XE-131(N,G)XE-132
#X.axis: Incident Energy
#Y.axis: Cross Section
#wdata:  2
#ldata:  11939
#data...
#            X            Y
#          MeV        barns
         1e-11      4518.01
   1.10304e-11      4301.82
   1.21669e-11      4095.97
   1.34206e-11      3899.98
   1.48034e-11      3713.36
   1.63287e-11      3535.67
   1.80111e-11      3366.49
   1.98669e-11       3205.4
   2.19139e-11      3052.02
   2.41719e-11      2905.98
   2.66625e-11      2766.92
   2.94097e-11      2634.53
     3.244e-11      2508.46
   3.57825e-11      2388.43
   3.94694e-11      2274.14
   4.35362e-11      2165.32
   4.80221e-11      2061.71
   5.29701e-11      1963.06
    5.8428e-11      1869.12
   6.44483e-11      1779.69
   7.10888e-11      1694.53
   7.84136e-11      1613.44
   8.64931e-11      1536.24
   9.54051e-11      1462.73
   1.05235e-10      1392.74
   1.16078e-10       1326.1
   1.28039e-10      1262.64
   1.41231e-10      1202.23
   1.55784e-10       1144.7
   1.71835e-10      1089.93
    1.8954e-10      1037.77
    2.0907e-10      988.116
   2.30612e-10      940.836
   2.54374e-10      895.818
   2.80584e-10      852.954
   3.09494e-10      812.141
   3.41383e-10      773.281
   3.76558e-10      736.281
   4.15358e-10      701.052
   4.58155e-10      667.508
   5.05362e-10       635.57
   5.57433e-10       605.16
   6.14869e-10      576.205
   6.78223e-10      548.636
   7.48105e-10      522.386
   8.25188e-10      497.392
   9.10213e-10      473.595
      1.004e-9      450.937
    1.10745e-9      429.362
    1.22155e-9      408.821
    1.34742e-9      389.262
    1.48625e-9       370.64
    1.63939e-9      352.909
    1.80831e-9      336.026
    1.99463e-9      319.952
    2.20016e-9      304.647
    2.42685e-9      290.075
    2.67691e-9        276.2
    2.95273e-9       262.99
    3.25697e-9      250.411
    3.59256e-9      238.436
    3.96272e-9      227.034
    4.37103e-9      216.178
    4.82141e-9      205.843
    5.31819e-9      196.005
    5.86616e-9       186.64
    6.47059e-9      177.726
     7.1373e-9      169.241
    7.87271e-9      161.163
    8.68389e-9      153.469
    9.57865e-9       146.14
    1.05656e-8      139.158
    1.16543e-8      132.508
    1.28551e-8      126.178
    1.41796e-8      120.155
    1.56406e-8      114.424
    1.72522e-8      108.968
    1.90298e-8      103.768
    2.09906e-8      98.8154
    2.31534e-8      94.0998
    2.52419e-8      90.1359
       2.53e-8      90.0327
    2.79068e-8      85.7408
    3.07823e-8       81.656
     3.3954e-8      77.7721
    3.74525e-8      74.0799
    4.13115e-8      70.5615
    4.55681e-8      67.2054
    5.02633e-8      64.0092
    5.54423e-8      60.9674
    6.11549e-8      58.0745
    6.74561e-8      55.3287
    7.44066e-8      52.7194
    8.20732e-8      50.2275
    9.05297e-8      47.8536
    9.98577e-8      45.5957
    1.10147e-7      43.4484
    1.21496e-7      41.4063
    1.34014e-7      39.4677
    1.48866e-7       37.503
    1.64204e-7      35.7522
    1.81123e-7      34.0869
    1.99786e-7      32.5045
    2.20371e-7      31.0012
    2.43077e-7      29.5732
    2.68123e-7      28.2182
    2.97822e-7      26.8515
    3.28508e-7      25.6318
    3.64913e-7      24.3941
    4.05332e-7      23.2263
     4.5025e-7      22.1233
    4.96642e-7      21.1525
    5.59435e-7      20.0474
    6.25783e-7       19.068
    6.95131e-7      18.2073
    7.66755e-7      17.4508
    8.51684e-7        16.69
    9.46066e-7      15.9794
    1.05086e-6      15.3177
    1.16731e-6       14.704
     1.3149e-6      14.0678
    1.46061e-6      13.5496
    1.62239e-6      13.0825
    1.80218e-6      12.6631
     2.0018e-6      12.2935
    2.22363e-6      11.9762
    2.46993e-6       11.716
    2.72443e-6      11.5343
    2.92211e-6      11.4647
    2.93191e-6      11.4643
    3.02032e-6       11.495
    3.06524e-6      11.5676
    3.09893e-6      11.6889
    3.13262e-6      11.8988
    3.17417e-6      12.1957
    3.19102e-6      12.2584
    3.19978e-6      12.2662
    3.21797e-6      12.2249
    3.24043e-6      12.0886
    3.28535e-6       11.751
    3.31904e-6      11.5796
    3.35273e-6      11.4827
    3.42011e-6      11.3971
    3.55194e-6      11.3544
    3.60205e-6      11.3524
    3.89308e-6      11.4007
    4.23447e-6       11.542
    4.60579e-6      11.7821
    4.97459e-6      12.1081
    5.33555e-6      12.5148
    5.68289e-6      12.9929
    6.01044e-6      13.5297
    6.31234e-6       14.107
    6.62973e-6      14.8089
    6.91431e-6      15.5321
    7.21111e-6      16.3948
    7.46796e-6      17.2436
    7.73434e-6      18.2388
    8.00983e-6      19.4111
    8.23744e-6      20.5071
    8.47151e-6      21.7723
    8.65163e-6      22.8562
    8.83514e-6      24.0676
    9.02299e-6      25.4437
    9.21438e-6      27.0041
     9.4103e-6      28.7911
    9.60991e-6      30.8414
    9.74549e-6       32.386
    9.88298e-6      34.0955
    1.00224e-5      35.9946
    1.01638e-5      38.1129
    1.03072e-5      40.4864
    1.04526e-5      43.1586
    1.06001e-5      46.1831
    1.07122e-5      48.7268
    1.08255e-5       51.537
    1.09397e-5      54.6534
    1.10551e-5      58.1229
    1.11721e-5      62.0214
    1.12901e-5      66.4033
    1.14093e-5      71.3537
    1.14895e-5      75.0266
    1.15703e-5      79.0399
    1.16516e-5      83.4379
    1.17335e-5      88.2726
     1.1816e-5       93.605
    1.18991e-5      99.5074
    1.19827e-5      106.065
    1.20669e-5      113.374
    1.21518e-5      121.552
    1.22157e-5      128.349
    1.22802e-5      135.843
    1.23447e-5       144.04
    1.24098e-5       153.12
    1.24752e-5      163.178
    1.25407e-5      174.295
     1.2607e-5      186.791
    1.26734e-5      200.711
      1.274e-5      216.388
    1.27849e-5      228.035
    1.28297e-5       240.68
    1.28746e-5      254.436
    1.29198e-5      269.549
    1.29653e-5      286.205
    1.30107e-5      304.491
    1.30562e-5      324.627
     1.3102e-5       347.04
    1.31482e-5      372.088
    1.31943e-5      400.005
    1.32289e-5      423.095
    1.32635e-5      448.279
    1.32986e-5      476.225
    1.33337e-5      506.909
    1.33688e-5      540.703
    1.34038e-5      578.038
    1.34389e-5      619.426
    1.34743e-5      665.927
    1.35099e-5      718.167
    1.35336e-5      756.506
    1.35574e-5       798.02
    1.35811e-5       843.07
    1.36048e-5      892.074
    1.36285e-5      945.512
    1.36552e-5      1011.49
    1.36773e-5      1071.83
    1.36995e-5      1137.76
    1.37216e-5      1209.99
    1.37438e-5      1289.34
    1.37685e-5       1387.2
    1.37883e-5      1473.97
     1.3808e-5      1569.12
    1.38278e-5      1673.75
    1.38453e-5      1775.22
    1.38606e-5      1871.09
    1.38758e-5      1974.87
     1.3891e-5      2087.41
    1.39062e-5      2209.71
    1.39214e-5      2342.88
    1.39367e-5      2488.21
    1.39519e-5      2647.14
    1.39671e-5      2821.34
    1.39823e-5       3012.7
    1.39975e-5       3223.4
    1.40128e-5      3455.88
     1.4028e-5      3712.97
    1.40432e-5      3997.82
    1.40546e-5      4231.82
     1.4066e-5      4485.08
    1.40774e-5      4759.41
    1.40889e-5       5056.7
    1.41003e-5      5378.97
    1.41117e-5      5728.31
    1.41231e-5      6106.87
    1.41345e-5      6516.78
    1.41459e-5      6960.12
    1.41573e-5      7438.81
    1.41688e-5       7954.5
    1.41802e-5      8508.45
    1.41954e-5      9307.69
    1.42106e-5      10175.8
    1.42258e-5      11109.4
    1.42411e-5      12101.3
    1.42639e-5      13672.2
    1.43019e-5      16348.5
    1.43172e-5      17362.3
    1.43331e-5      18340.4
    1.43457e-5      19022.3
    1.43583e-5      19608.3
    1.43697e-5      20044.3
    1.43811e-5      20377.3
    1.43936e-5        20614
    1.44033e-5      20701.9
    1.44082e-5      20713.3
    1.44216e-5      20632.4
    1.44351e-5      20386.3
    1.44465e-5      20056.8
    1.44579e-5      19624.1
    1.44701e-5      19060.4
    1.44785e-5      18619.1
    1.44952e-5      17628.2
    1.45181e-5      16111.8
    1.45637e-5      12897.9
    1.45866e-5      11367.6
    1.46018e-5      10413.7
     1.4617e-5       9523.5
    1.46322e-5      8701.27
    1.46436e-5      8130.09
     1.4655e-5      7597.51
    1.46665e-5      7102.49
    1.46779e-5      6643.57
    1.46893e-5      6218.94
    1.47007e-5      5826.61
    1.47121e-5      5464.47
    1.47235e-5      5130.38
    1.47349e-5      4822.24
    1.47464e-5         4538
    1.47578e-5       4275.7
    1.47692e-5      4033.52
    1.47844e-5      3738.94
    1.47996e-5      3473.38
    1.48149e-5      3233.53
    1.48301e-5      3016.44
    1.48453e-5      2819.54
    1.48605e-5      2640.55
    1.48757e-5      2477.48
     1.4891e-5      2328.59
    1.49062e-5      2192.34
    1.49214e-5      2067.39
    1.49366e-5      1952.58
    1.49518e-5      1846.85
    1.49671e-5      1749.31
    1.49823e-5      1659.15
    1.50021e-5      1551.81
    1.50218e-5      1454.39
    1.50416e-5      1365.72
    1.50614e-5       1284.8
    1.50848e-5      1197.92
    1.51082e-5      1119.45
    1.51316e-5      1048.35
     1.5155e-5       983.74
    1.51784e-5      924.856
    1.51986e-5      878.204
    1.52233e-5      825.605
    1.52481e-5      777.541
    1.52728e-5      733.506
    1.52975e-5      693.062
    1.53222e-5      655.828
     1.5347e-5      621.475
    1.53717e-5      589.716
    1.53976e-5      558.929
    1.54248e-5      529.198
    1.54519e-5       501.75
    1.54926e-5      464.371
    1.55333e-5      430.973
     1.5574e-5      401.015
    1.56149e-5       373.92
    1.56561e-5      349.234
    1.56974e-5      326.886
    1.57387e-5      306.592
      1.578e-5      288.109
    1.58212e-5      271.229
    1.58631e-5      255.563
    1.59049e-5        241.2
    1.59328e-5      232.279
    1.59886e-5      215.844
    1.60444e-5      201.079
     1.6101e-5      187.592
    1.61576e-5      175.404
    1.62142e-5      164.344
    1.62708e-5      154.272
    1.63282e-5      144.954
    1.63856e-5      136.443
     1.6443e-5      128.656
    1.65003e-5      121.516
    1.65585e-5      114.861
    1.66167e-5      108.726
    1.66749e-5      103.058
    1.67331e-5      97.8124
    1.68217e-5      90.5561
    1.69102e-5      84.0658
    1.69991e-5      78.2122
    1.70889e-5      72.8928
    1.71787e-5      68.0893
    1.72693e-5      63.6986
    1.73604e-5      59.6945
    1.74514e-5      56.0499
    1.75437e-5      52.6785
    1.76361e-5       49.597
    1.77288e-5      46.7607
    1.78224e-5      44.1331
    1.79161e-5      41.7168
    1.80106e-5      39.4699
    1.81372e-5      36.7286
    1.82647e-5      34.2415
    1.83931e-5       31.979
    1.85224e-5      29.9161
    1.86526e-5      28.0347
    1.87837e-5      26.3128
    1.89157e-5      24.7256
    1.90487e-5      23.2644
    1.91826e-5      21.9174
    1.93174e-5      20.6736
    1.94532e-5      19.5229
      1.959e-5      18.4567
    1.97277e-5      17.4671
    1.98663e-5      16.5473
     2.0006e-5      15.6912
    2.02174e-5      14.5137
    2.04309e-5      13.4522
    2.06463e-5      12.4924
    2.08647e-5      11.6185
    2.10853e-5      10.8244
    2.13078e-5      10.1013
    2.15325e-5      9.44122
    2.17603e-5      8.83465
    2.19903e-5      8.27883
    2.22225e-5       7.7685
    2.24568e-5      7.29908
    2.26944e-5      6.86455
    2.29343e-5       6.4636
    2.31764e-5      6.09353
    2.35033e-5       5.6429
    2.38349e-5      5.23266
    2.40862e-5      4.95078
    2.44261e-5      4.60387
    2.47707e-5      4.28788
    2.51201e-5      3.99951
    2.54745e-5       3.7358
    2.58339e-5      3.49412
    2.61984e-5       3.2722
     2.6568e-5      3.06822
    2.69428e-5      2.88056
     2.7323e-5      2.70764
    2.77084e-5      2.54797
    2.80993e-5       2.4004
    2.84958e-5        2.264
    2.88978e-5      2.13772
    2.93055e-5      2.02064
    2.97189e-5      1.91216
    3.01382e-5      1.81151
    3.05634e-5      1.71807
    3.09946e-5      1.63139
    3.14319e-5       1.5509
    3.18753e-5      1.47627
     3.2325e-5      1.40798
    3.27811e-5      1.34349
    3.32436e-5      1.28415
    3.39504e-5       1.2039
    3.44294e-5      1.15603
    3.49151e-5      1.11259
    3.54077e-5      1.07347
    3.59072e-5      1.03868
    3.64138e-5       1.0084
    3.69276e-5     0.982835
    3.74485e-5     0.962922
    3.79769e-5     0.948726
    3.84593e-5     0.942383
    3.86758e-5     0.941697
     3.9085e-5     0.944815
    3.94981e-5     0.954495
    3.97748e-5     0.965327
    4.00554e-5     0.980519
    4.03359e-5      1.00067
    4.06205e-5      1.02714
     4.0905e-5      1.06093
    4.11214e-5      1.09252
    4.13378e-5      1.13022
    4.15553e-5      1.17541
    4.17747e-5      1.22997
     4.1921e-5      1.27229
    4.20673e-5      1.32018
    4.22157e-5      1.37532
    4.23641e-5      1.43817
    4.25125e-5      1.51005
    4.26608e-5      1.59259
    4.27737e-5      1.66372
    4.28865e-5      1.74324
    4.29994e-5      1.83232
    4.31122e-5      1.93244
    4.32251e-5      2.04559
    4.33388e-5      2.17529
    4.34149e-5      2.27227
     4.3491e-5      2.37856
    4.35672e-5      2.49532
    4.36433e-5      2.62395
    4.37194e-5      2.76606
    4.37955e-5      2.92359
    4.38716e-5      3.09881
    4.39342e-5      3.25808
    4.39968e-5      3.43293
    4.40594e-5      3.62543
     4.4122e-5        3.838
    4.41846e-5      4.07348
    4.42472e-5      4.33526
    4.43098e-5      4.62737
    4.43724e-5      4.95477
    4.44311e-5      5.29912
    4.44898e-5      5.68582
    4.45289e-5       5.9707
     4.4568e-5      6.28016
    4.46071e-5      6.61711
    4.46463e-5      6.98492
    4.46854e-5      7.38749
    4.47206e-5      7.78329
    4.47558e-5      8.21478
     4.4791e-5      8.68645
    4.48263e-5       9.2035
    4.48615e-5      9.77203
    4.48967e-5      10.3992
    4.49319e-5      11.0935
    4.49671e-5      11.8651
    4.50047e-5      12.7871
    4.50297e-5       13.467
    4.50547e-5      14.2065
    4.50798e-5      15.0128
    4.51048e-5      15.8945
    4.51299e-5      16.8618
    4.51549e-5      17.9265
     4.5178e-5      19.0063
    4.51991e-5      20.0887
    4.52202e-5      21.2733
    4.52414e-5       22.574
    4.52625e-5      24.0075
    4.52836e-5      25.5939
    4.53047e-5      27.3574
    4.53259e-5      29.3277
    4.53443e-5      31.2395
    4.53599e-5      33.0341
    4.53756e-5      35.0061
    4.53912e-5      37.1821
    4.54069e-5      39.5942
    4.54225e-5      42.2809
    4.54382e-5      45.2891
    4.54499e-5      47.7899
    4.54616e-5      50.5316
    4.54722e-5      53.2321
    4.54828e-5      56.1816
    4.54933e-5      59.4111
    4.55039e-5       62.956
    4.55145e-5      66.8562
     4.5525e-5      71.1567
    4.55356e-5      75.9081
    4.55461e-5      81.1668
    4.55567e-5       86.996
    4.55673e-5      93.4651
    4.55743e-5      98.1708
    4.55837e-5      104.983
    4.55931e-5      112.466
    4.56025e-5      120.687
    4.56119e-5      129.715
    4.56213e-5      139.625
    4.56307e-5      150.494
      4.564e-5      162.401
    4.56494e-5      175.429
      4.566e-5      191.527
    4.56706e-5      209.264
    4.56811e-5      228.754
    4.56917e-5      250.104
    4.57023e-5      273.413
    4.57109e-5      294.105
    4.57213e-5      320.562
    4.57316e-5      349.074
    4.57419e-5      379.666
    4.57534e-5      415.921
    4.57659e-5      458.514
    4.57784e-5      503.972
    4.57909e-5      552.083
    4.58097e-5      628.546
    4.58347e-5      736.241
    4.58723e-5      900.445
    4.58911e-5      978.386
    4.59099e-5      1049.89
    4.59224e-5       1092.6
    4.59349e-5      1130.45
    4.59474e-5      1162.71
    4.59587e-5      1186.46
      4.597e-5      1204.81
    4.59825e-5      1218.49
     4.5995e-5      1224.87
    4.59996e-5      1225.34
    4.60113e-5      1222.03
    4.60238e-5      1211.34
     4.6036e-5      1194.03
    4.60463e-5      1174.31
    4.60588e-5      1144.58
    4.60714e-5      1109.01
    4.60839e-5      1068.28
    4.61027e-5      999.184
    4.61214e-5      922.902
    4.61527e-5      787.327
     4.6184e-5      651.461
    4.62028e-5      573.905
    4.62153e-5      524.849
    4.62279e-5      478.312
    4.62404e-5      434.542
    4.62498e-5      403.631
    4.62592e-5       374.41
    4.62686e-5      346.896
    4.62779e-5       321.09
    4.62892e-5      292.348
    4.63005e-5      265.974
    4.63117e-5       241.88
    4.63193e-5      227.033
    4.63268e-5      213.115
    4.63343e-5      200.091
    4.63435e-5      185.245
    4.63517e-5      173.055
    4.63599e-5      161.771
    4.63682e-5      151.337
    4.63764e-5        141.7
    4.63846e-5      132.805
    4.63928e-5      124.602
     4.6401e-5       117.04
    4.64092e-5      110.072
    4.64175e-5      103.652
    4.64257e-5      97.7373
    4.64351e-5      91.5431
    4.64445e-5      85.8986
    4.64538e-5      80.7513
    4.64632e-5       76.053
    4.64726e-5      71.7596
     4.6482e-5      67.8312
    4.64914e-5      64.2313
    4.65008e-5      60.9271
    4.65133e-5      56.9307
    4.65258e-5      53.3457
    4.65376e-5      50.3108
    4.65493e-5      47.5522
    4.65611e-5      45.0371
    4.65728e-5      42.7367
    4.65884e-5      39.9613
    4.66041e-5      37.4743
    4.66197e-5      35.2347
    4.66354e-5      33.2087
     4.6651e-5      31.3679
    4.66698e-5      29.3706
    4.66886e-5      27.5727
    4.67074e-5      25.9467
    4.67262e-5        24.47
    4.67449e-5      23.1237
    4.67637e-5      21.8922
    4.67825e-5       20.762
    4.68013e-5      19.7218
    4.68263e-5      18.4583
    4.68514e-5      17.3183
    4.68764e-5      16.2856
    4.69014e-5      15.3468
    4.69265e-5      14.4905
    4.69515e-5      13.7071
    4.69766e-5      12.9882
    4.70016e-5       12.327
    4.70329e-5      11.5721
    4.70642e-5      10.8874
    4.70955e-5      10.2644
    4.71268e-5      9.69572
    4.71581e-5      9.17517
    4.71894e-5      8.69739
    4.72207e-5      8.25775
     4.7252e-5      7.85227
    4.72911e-5      7.38816
    4.73302e-5      6.96614
    4.73694e-5      6.58121
    4.74085e-5      6.22913
    4.74476e-5      5.90624
    4.74868e-5      5.60937
    4.75454e-5      5.20699
    4.75924e-5      4.91755
    4.76472e-5      4.61148
    4.77019e-5      4.33517
    4.77567e-5      4.08479
    4.78115e-5      3.85715
    4.78663e-5      3.64956
     4.7921e-5      3.45972
    4.79758e-5      3.28567
    4.80384e-5      3.10391
    4.81088e-5      2.91871
    4.81793e-5      2.75138
    4.82497e-5      2.59967
    4.83201e-5      2.46168
    4.83905e-5      2.33578
     4.8461e-5       2.2206
    4.85314e-5      2.11494
    4.86094e-5      2.00773
    4.86951e-5      1.90064
    4.87807e-5       1.8033
    4.88664e-5      1.71459
     4.8952e-5      1.63353
    4.90805e-5      1.52436
     4.9209e-5      1.42782
    4.93386e-5      1.34121
    4.94689e-5      1.26364
    4.95992e-5      1.19421
    4.97295e-5      1.13179
    4.98598e-5      1.07546
    4.99907e-5      1.02419
    5.01228e-5      0.97719
     5.0299e-5     0.920932
    5.04751e-5     0.870964
    5.06513e-5      0.82635
    5.08299e-5     0.785788
    5.10086e-5     0.749284
    5.11872e-5     0.716291
    5.13659e-5     0.686351
    5.16377e-5     0.645814
    5.19094e-5     0.610364
    5.21824e-5     0.578998
     5.2458e-5     0.550954
    5.27336e-5     0.525972
    5.30118e-5     0.503395
    5.33844e-5      0.47671
    5.37597e-5     0.453133
    5.41376e-5     0.432215
    5.45182e-5     0.413615
    5.49014e-5     0.396829
    5.52873e-5     0.381688
    5.58703e-5     0.361623
    5.64614e-5     0.344138
    5.70582e-5      0.32887
    5.76605e-5     0.315488
    5.82685e-5     0.303846
    5.90905e-5     0.290353
    5.97158e-5     0.281634
    6.05582e-5     0.271924
    6.14126e-5     0.264194
